,cycle index,p_a,p_b,p_c,q_a,q_b,q_c,r_a,r_b,r_c,s_a,s_b,s_c,t_a,t_b,t_c
0,0,1901.9699290497497,154.85749442179707,-0.0011853303434711875,-2457.778786489847,238.0,-0.00032228845804370404,21395.535065689648,299.15177308549954,-0.011196647836137925,-6336.032458923657,323.269354627261,-0.010496717820506814,2000.0,477.0,-1.0
1,1,2338.915564823628,156.13342794563343,-0.0018715823109619152,-2541.4448357576725,235.0,-0.000337864689387841,20156.762867775986,299.14975012513526,-0.01228662089956202,-3287.465958766832,313.0,-0.0002043990225555898,4000.1909998424367,561.0107594100969,-0.0004787350679353314
2,2,2000.0,39.0,-1.0,-1209.5419089433972,60.99999999999999,-5.752724723916486e-05,2000.0,156.0,-1.0,-2000.0,157.0,-1.0,2420.3259301515372,153.52368401400852,-0.002585099520355939
3,3,2273.176529287165,148.64586957553666,-0.001579457354954358,-2000.0,212.0,-1.0,2000.0,216.0,-1.0,-2411.474441194748,235.23852068382794,-0.00042298712259577386,20126.79638751806,299.1160188785429,-0.013262300142794932
4,4,1760.38529868166,149.26542861690828,-0.001895023533275017,-2609.036608410759,227.0,-0.00029355391787911256,19648.97703976449,298.3031830427009,-0.012251185023455234,-4125.87125852388,313.0,-0.00046182815163575003,2000.0,487.0,-1.0
5,5,2259.9692668893167,150.104811877479,-0.00219678229280139,-2778.6779980604215,231.0,-0.00029521833936285165,20239.774339116266,298.1975422970714,-0.013087970536644882,-4224.220014418854,313.0,-0.00042186689639166084,2000.0,480.0,-1.0
6,6,2564.0909661078194,146.21008225843096,-0.002145257821449941,-2126.4993916494604,233.0,-0.00038106024284599967,20778.93789515658,298.2714962596766,-0.011680133634128956,-3019.7197867355344,312.0,-0.00017504972382563057,2000.0,512.0,-1.0
7,7,1724.5302969340587,146.4749830265222,-0.004004103085121673,-2000.0,203.0,-1.0,2000.0,208.0,-1.0,-2135.917317084694,230.0,-0.0003342561180540833,20573.21822944004,297.6616014547867,-0.012226525091296948
8,8,1801.2397633281741,147.5116209264009,-0.004859775048509922,-2218.567576611089,232.0,-0.0002700684172871349,20896.756445892635,298.3728864112879,-0.012105508230358884,-6376.957087327462,322.3033070244767,-0.011881229602646952,2000.0,455.0,-1.0
9,9,1611.6337094163953,149.61562346620184,-0.002936824170207753,-2089.181142620206,232.99999999999983,-0.0003393322142593194,20802.1020809096,297.5623879365344,-0.011903992990979636,-5911.2758375854455,322.8047935315089,-0.01427395985917579,2000.0,444.0,-1.0
10,10,2000.0,45.0,-1.0,-1300.0493402960064,45.318266826561405,-0.0005430737142512891,2000.0,114.0,-1.0,-1466.5597342485019,99.8957688776988,-0.005310142440980661,2331.8880376810002,148.49532425568873,-0.001937356973349642
11,11,2085.3526499784625,148.89642642730038,-0.001617543398693608,-2256.0388845780317,233.99999999999997,-0.0002624299532410291,21221.27808341277,297.68942665359947,-0.01221460935794183,-4243.927403990344,312.0,-0.000693361364548832,2000.0,487.0,-1.0
12,12,2181.6439786471915,149.6863625855216,-0.00236021464888609,-3011.6767518525967,229.99999999999994,-0.00031758450668812797,20306.31841180668,297.9594155321753,-0.013511334144371369,-6819.064072065206,324.04143327782697,-0.009506452232464187,3809.0374986827246,551.7238713049921,-0.00040020852322970125
13,13,2125.712095400635,145.68000890672863,-0.0015081298981129655,-2443.0271010299966,230.0,-0.00032281111618999935,21033.020857469935,298.3954087296736,-0.011897434566589848,-3708.428557588858,312.0,-0.00027729663890513107,2000.0,490.0,-1.0
14,14,2003.7617006046087,144.34775307380067,-0.0034556582928291493,-2000.0,203.0,-1.0,2000.0,207.0,-1.0,-1761.4763949980256,236.0,-0.0002653982370527666,21576.87109155508,297.61025068263467,-0.011111902397068926
15,15,1906.7664022543704,144.71433995957327,-0.0026960302925045543,-2000.0,211.0,-1.0,2000.0,216.0,-1.0,-2176.545721432873,237.0,-0.0003011149824820877,21737.859145378337,297.78965029690676,-0.011700244461468584
16,16,1886.1684204441674,144.41227747210243,-0.0033392201037185524,-2299.239914129431,226.0,-0.0004660868546202725,21043.613788649058,298.34656520031695,-0.011231399307037464,-6409.146398016599,322.53919555185047,-0.010995146853523449,2000.0,491.0,-1.0
17,17,2000.0,159.0,-1.0,-2000.0,160.0,-1.0,1774.0789705091943,149.85636778357235,-0.0064435512679534455,-2309.5297708755093,228.0,-0.0003981855175748709,21045.91185828375,297.84315669772985,-0.012125246576220583
18,18,2000.0,156.0,-1.0,-2000.0,159.0,-1.0,1775.0707380666777,147.63917439127206,-0.003107826973792467,-2555.12804807002,232.99999999999997,-0.00044118019893747375,21180.62780336951,297.7926297336133,-0.012130546439425826
19,19,1735.780418441545,148.0182644216422,-0.0036326479912213074,-2155.0191372443087,227.99999999999997,-0.00034624521775572997,20968.78054438606,297.909982551197,-0.01075167640594221,-5804.937634711775,323.5400617446398,-0.009879343745323463,2000.0,430.0,-1.0
20,20,1740.6730348034744,145.03038923450094,-0.0030920277998218427,-2171.6089283728766,227.0,-0.00033363925438868063,21400.125850641656,298.5761187189945,-0.012669625195213047,-5750.184222414474,324.03168434250205,-0.009935595366463858,2000.0,477.0,-1.0
21,21,2000.0,154.0,-1.0,-2000.0,156.0,-1.0,1803.859949163922,147.1860792798877,-0.004333648216555704,-2416.22792824314,226.0,-0.0003883037772055816,21070.84068055039,298.7322062210522,-0.012143661670869756
22,22,1914.0872386554436,144.69568140976884,-0.0036116073469596834,-2252.8237243833078,222.9999999999999,-0.0002907947900227681,21181.064506606635,298.10246420842566,-0.01240225995607224,-5900.249361218111,323.44344125548264,-0.010955894869931444,2000.0,427.0,-1.0
23,23,1599.3028797206268,148.09641905131636,-0.004394863670523937,-2276.660417834124,231.0,-0.0003840004002991076,21127.548986895727,298.8378226195888,-0.012392030164120448,-4001.736913003464,313.0,-0.0005089787064255039,3676.9094106591356,560.4224662447835,-0.00047500637638869824
24,24,1412.9904509904509,149.14428056878208,-0.00482062698912689,-2379.240342974579,229.0,-0.00041063508579264845,19894.25588195815,298.69525533472904,-0.01179347457595932,-3778.396450278023,313.0,-0.0006681803365969417,2000.0,484.0,-1.0
25,25,1918.443893977021,148.2137823777249,-0.004674702814846396,-2000.0,208.0,-1.0,2000.0,212.0,-1.0,-2113.919350114269,233.0,-0.0002851651514785852,20430.344862783393,298.63921457547275,-0.01135366807592122
26,26,1968.8869860597954,143.75319975945877,-0.0033608828811039966,-2298.118429876329,227.0,-0.00031682578012914397,21100.718521483606,298.3070041987249,-0.011991403141648567,-4298.116642087733,313.0,-0.0006442755221503635,2000.0,474.0,-1.0
27,27,2316.604281496594,143.66974370515717,-0.0025016264208516516,-2213.709662739481,232.0,-0.00028891013619827653,20948.441867368445,299.42986135668315,-0.012046596031598257,-6566.356548701146,323.28972709042307,-0.01213633335344089,2000.0,501.0,-1.0
28,28,2000.0,156.0,-1.0,-2000.0,158.0,-1.0,1743.1081996165597,149.50119871748376,-0.0032735918101990703,-2000.0,205.0,-1.0,2000.0,206.0,-1.0
29,29,2030.8761108550423,148.73223692506772,-0.0030020063446147866,-2273.3147767856394,234.0,-0.0004037882671349674,20935.177841833305,298.1659636714523,-0.012661796407951963,-6456.004317443733,323.8401299105189,-0.008932069983092553,2000.0,485.0,-1.0
30,30,1535.5593610795004,147.77873668220863,-0.0033740014223563966,-2301.1516456573363,228.0,-0.00027664391132841055,20567.55714316895,298.9249071235353,-0.01254623328310629,-6340.780051691122,322.63681133197684,-0.013205458215426872,2000.0,466.0,-1.0
31,31,1868.058446732763,147.8124704175203,-0.0032653343388303786,-2250.388397752491,228.0,-0.00043384861792833895,20587.691198794964,297.7490424205409,-0.011399764326431382,-5654.157243414825,323.31341389032355,-0.010914146080443207,2000.0,477.0,-1.0
32,32,2000.0,154.0,-1.0,-2000.0,157.0,-1.0,1662.0808228979638,148.30836580451538,-0.0037247070955066528,-2000.0,202.0,-1.0,2000.0,205.0,-1.0
33,33,2057.5070326748782,145.43264484028632,-0.0024479801242666805,-2050.1356624337423,233.0,-0.0003398558107761482,20441.35687931594,298.3552746587585,-0.011928473093773363,-3812.701912634991,313.0,-0.0006582672946272394,2000.0,496.0,-1.0
34,34,1722.243975243713,146.63226661523126,-0.00734927195621627,-2207.2347401800503,223.0,-0.0003442051222040711,20419.44914674862,298.20493031160015,-0.012166827406204518,-5407.0269092102135,324.6748336197276,-0.011332547684788195,2000.0,425.0,-1.0
35,35,2000.0,157.0,-1.0,-2000.0,160.0,-1.0,1421.3187707516872,145.5552114445864,-0.004208877302467975,-2000.0,194.0,-1.0,2000.0,205.0,-1.0
36,36,1932.8604376101641,143.88208400221367,-0.002720743802054271,-2037.0574910244836,225.99999999999994,-0.000353024365223081,20415.08393250699,298.55435991364124,-0.011220838621273708,-6074.832330105788,322.54341260446546,-0.01320246870756777,2000.0,495.0,-1.0
37,37,1927.7230713709903,142.0549550986775,-0.0043242171729858826,-2351.1983019238287,222.0,-0.00037095129991369344,20671.315954838923,297.92612010406174,-0.011852840221218344,-6174.890397958996,323.58116498158546,-0.011100144289172872,2000.0,479.0,-1.0
38,38,1642.5567541077182,141.91291399473488,-0.00489361066641259,-2000.0,193.0,-1.0,2000.0,197.0,-1.0,-2304.469282819711,225.0,-0.00031487256436232543,21274.01139740223,297.4864071323111,-0.011914592800727758
39,39,2052.9561467000035,143.26121307045702,-0.003653780437357915,-2190.1640124369264,230.99999999979093,-0.0003473015015505045,20822.06633691134,297.4390338643951,-0.01120965169909514,-6049.472155250252,322.0013622354562,-0.013356139720759124,2000.0,485.0,-1.0
40,40,1926.2871608204832,144.68025390980353,-0.005555476601397007,-2065.890652377191,226.0,-0.0003773303940949149,21266.766664820516,298.33601802914984,-0.011819646127634562,-5619.482314288051,323.65106670086675,-0.012323109607316118,2000.0,477.0,-1.0
41,41,2232.468414732787,148.2551537147901,-0.002681940462753759,-1779.6690128363382,234.0,-0.0003898612921211239,21012.20728645432,298.7205793603466,-0.011567624016579237,-5892.966759138294,322.71950968019513,-0.014983061399297191,2000.0,495.0,-1.0
42,42,1752.8610963701365,147.55069807318952,-0.003973217407994884,-2000.0,206.0,-1.0,2000.0,207.0,-1.0,-2300.6400468078155,230.0,-0.0003041368344814855,20493.93452604671,297.33894730805366,-0.013382252821316543
43,43,2000.0,159.0,-1.0,-2000.0,163.0,-1.0,1560.0394134420017,148.22662853775967,-0.006653879935115076,-2000.0,199.0,-1.0,2000.0,204.0,-1.0
44,44,1624.3957996177107,147.95492767508463,-0.0032591388680192563,-2268.3059327439532,226.0,-0.00038843376200330403,20875.16594577921,297.36959851068735,-0.01113023488811963,-5695.6385953538675,322.39039224107586,-0.01234063292327041,2000.0,475.0,-1.0
45,45,1391.0601491459142,147.5846621648152,-0.0049348414594845074,-2000.0,204.0,-1.0,2000.0,205.0,-1.0,-2271.485656049157,231.0,-0.0003696653486122252,20646.008705985336,297.70422766922223,-0.013346201035190915
46,46,1859.3407127417784,145.60246855625005,-0.0033983124394505165,-2468.2523015253005,228.0,-0.00032550963235477496,20761.717107258537,299.42143039267444,-0.013089231497146735,-3887.16842146764,313.0,-0.00033852873833258354,2000.0,500.0,-1.0
47,47,2067.729395522026,144.4322067973502,-0.00471502480627946,-2053.33736976207,223.0,-0.00030571461013255587,20458.97622800215,298.33848905658886,-0.011631662671249179,-3570.766093736814,313.0,-0.0005150164838783748,3377.565098633428,564.3177697760337,-0.00042543542320382755
48,48,1869.8425068551321,146.1497704282283,-0.0035737000540405177,-2000.0,195.0,-1.0,2000.0,196.0,-1.0,-2000.0,214.0,-1.0,2000.0,218.0,-1.0
49,49,1918.9832251619796,145.40440671603773,-0.0021027827203516803,-2000.0,205.0,-1.0,2000.0,207.0,-1.0,-2330.4591929983067,230.99999999999736,-0.00035360561233802246,19791.375065070326,298.6665899751794,-0.01170213601956488
50,50,1962.3974264175422,147.07559134012408,-0.0038274536292386627,-2294.5814431398135,231.0,-0.0003474336725574923,20378.77043699244,298.09671075372165,-0.011523724172298272,-5279.877593400673,323.4837748491134,-0.01036584518733928,2000.0,435.0,-1.0
51,51,702.1888681776111,158.30855770843647,-6.771509811261933,-2405.048393263806,225.0,-0.0004418723277589485,20642.554709695218,297.52139683831615,-0.011417832231468146,-3037.7393377503445,312.0,-0.0002619343580048266,3658.763374732067,567.0870279004628,-0.00039587450787734765
52,52,1646.6234938017349,149.1638766363306,-0.0037465606670903213,-2000.0,206.0,-1.0,2000.0,209.0,-1.0,-2283.3407435833515,230.0,-0.00039599993869727346,20784.014071520734,297.53670557525123,-0.012260977943067406
53,53,1579.9535155131036,149.17121018393917,-0.0038141014928269744,-2000.0,206.0,-1.0,2000.0,207.0,-1.0,-2010.7079877460028,235.0,-0.00029553180957199795,21443.312642540044,299.2614001725001,-0.012399663127592692
54,54,1958.5766710889168,148.7603648885877,-0.0033247036428497773,-2036.0185663022862,233.0,-0.000352912291123047,20351.198115170522,299.39407123368505,-0.011339446374907448,-3838.3698779286533,314.0,-0.0008255258713242636,2000.0,503.0,-1.0
55,55,2177.2182134396553,145.6006075210246,-0.002886218989117502,-2000.0,204.0,-1.0,2000.0,209.0,-1.0,-2236.380087776104,231.0,-0.0003451434103955492,20361.457000605136,297.5330190212429,-0.011630903900726245
56,56,1925.7597711836559,142.61643557203763,-0.0022813009051174944,-2339.776438052907,232.9999999999994,-0.00030700376757926065,20713.28628909575,298.1188594580651,-0.012251078204755935,-3363.9261574983457,312.0,-0.0002271272396290418,2000.0,494.0,-1.0
57,57,1998.4212035593512,142.83976325777172,-0.003247667568897874,-2074.0573966549828,228.99999999999994,-0.0001620874845088321,20800.44163576339,298.3356328865582,-0.01126904787652994,-3227.0732688198827,313.0,-0.000256836102814698,2000.0,496.0,-1.0
58,58,2205.521589596457,144.7367272639142,-0.0031169855045606247,-2442.141975651071,229.9999999999947,-0.0003205268374813544,21024.620734108208,298.84409733124045,-0.01281996888141758,-3566.56789016266,313.0,-0.0002228364932365449,2000.0,506.0,-1.0
59,59,1994.0631117059395,142.33755943304809,-0.0023987319812005473,-2163.5665708754445,227.0,-0.0003022046460318856,20960.99474354315,297.9124872638549,-0.012118698528745838,-2890.3355179733417,312.0,-0.00026108156573664013,2000.0,523.0,-1.0
60,60,1641.0501911187769,149.8031239502128,-0.002110419164349351,-2163.708968548254,233.0,-0.000375209045493165,21042.92021827728,298.8337514594624,-0.012194757399469987,-3334.0545408543444,313.0,-0.00033301537823118155,2000.0,502.0,-1.0
61,61,2076.099771261361,146.89957493276376,-0.003320463018423192,-2118.3890677640297,232.0,-0.0003661585726768529,21092.685853155534,298.0649592214546,-0.011544091491701911,-5648.995886261206,322.1131744420882,-0.009808479008378092,2000.0,512.0,-1.0
62,62,1740.2973116218466,147.74598207345784,-0.005910306344386763,-2292.4738779578033,224.99999999999997,-0.0003506304768881985,20916.932724923045,297.4142740705462,-0.011918880003735245,-5362.334326088169,323.7565703311898,-0.010243385212445019,2000.0,487.0,-1.0
63,63,1539.995714577427,146.43500097139258,-0.0039030648219896564,-2522.3927974885332,226.0,-0.0003100219247104461,20968.996607748442,298.94379833544843,-0.012454915428934883,-3911.0255306200706,313.0,-0.0006543474412506452,2000.0,484.0,-1.0
64,64,2129.838360688198,142.20373328900604,-0.0024089500794439687,-2040.0690972122238,228.0,-0.0002596740617952775,21156.920308746896,297.69442061060874,-0.01189310183770095,-3214.0117523249264,313.0,-0.0003643451917186546,2000.0,479.0,-1.0
65,65,1947.3542292452235,142.80113907524938,-0.004198125683102994,-2393.469177792971,223.0,-0.00030890035829815837,20882.109332538927,297.92366559286046,-0.012414484138827753,-3319.195161559506,312.0,-0.00026961477183180826,2000.0,473.0,-1.0
66,66,2316.7489392238185,148.8564175217877,-0.004910825807550262,-2406.4637153234057,228.0,-0.00042998899419499176,20669.634314480998,298.2520286882249,-0.01222614044139528,-3995.0515665098796,313.0,-0.0005179884531647212,2000.0,502.0,-1.0
67,67,2017.7975626136129,148.9557549789082,-0.003702747171312698,-2310.5665828984984,229.0,-0.0004388495589491862,20953.80945349766,298.0476280222578,-0.012434646742271746,-3612.545988957435,313.0,-0.00048786563205371663,2000.0,484.0,-1.0
68,68,1845.4786066706513,144.8279062024112,-0.0036719897666526095,-2380.6093167988156,226.0,-0.0003648246046775977,20559.20129780843,298.36528807772555,-0.012026116060781003,-4410.058027887083,313.0,-0.0007870100707194981,3909.515445122971,568.9271414082773,-0.0004109992747700349
69,69,1858.3174500212667,146.8217104788609,-0.0033435038799089324,-2292.3556469698574,228.0,-0.00030934441441359244,20684.079487822477,298.25017603698853,-0.01199953199935907,-5366.874214949262,324.0505182147788,-0.009498939825776962,2000.0,465.0,-1.0
70,70,1771.7497344893188,146.7862262644425,-0.0038370952157056326,-2482.172350282922,225.99999999999997,-0.0003151717060450484,21091.031388796204,298.7586782842037,-0.012438611687334273,-3797.9670716319615,313.0,-0.00039937908997067316,2000.0,497.0,-1.0
71,71,1911.3719196100487,147.67708791446333,-0.0057715784243037955,-2000.0,202.0,-1.0,2000.0,205.0,-1.0,-2438.558213312314,226.0,-0.00032390674908175235,20259.815091931185,297.8993315864267,-0.012450423109559575
72,72,2000.0,162.0,-1.0,-2000.0,167.0,-1.0,1649.6805040121421,148.0462591602462,-0.010150568389384041,-2000.0,201.0,-1.0,2000.0,203.0,-1.0
73,73,1442.0073319492321,146.79164661848395,-0.0037821613738283485,-2527.7367480595512,224.0,-0.0003246750693552454,20681.128594394584,299.240888774211,-0.01214653541842149,-3750.8614086458897,313.0,-0.00045288856590770625,2000.0,483.0,-1.0
74,74,1947.1711241644143,144.50598344648137,-0.004841331827796366,-2591.8241330770293,222.0,-0.00045969682492985576,20472.79837040906,297.8080937991275,-0.012140984510028303,-6001.820370755815,322.8799013121778,-0.012337880876951753,2000.0,463.0,-1.0
75,75,2122.593188053937,146.5058927669707,-0.006453362701094166,-2335.7868473557087,225.0,-0.0003623747959063552,20989.401071968146,298.7327544699077,-0.012604417710796532,-3380.189571025176,313.0,-0.0003676073687009569,2000.0,487.0,-1.0
76,76,2000.0,153.0,-1.0,-2000.0,155.0,-1.0,1693.4443882613896,149.36700885066892,-0.003023074984980285,-2266.1849645223056,233.0,-0.00042269568070685173,20512.933162422345,299.2252410407894,-0.0120656392840497
77,77,2003.9832523306316,144.7760929790995,-0.003686821135304078,-2000.0,203.0,-1.0,2000.0,208.0,-1.0,-2232.948886290952,232.0,-0.0003252829428362313,20441.66605488321,298.1627200294856,-0.011940555042768485
78,78,1711.8953094169942,148.99578869600157,-0.00491123370213885,-2360.7984670528126,227.0,-0.00038850689374174033,20958.993028012155,298.53780788464076,-0.012717177016318469,-6136.762191887519,323.7885443707225,-0.011625628255889087,2000.0,468.0,-1.0
79,79,1611.782852580119,152.9737204288063,-0.0023375360272302175,-2000.0,210.0,-1.0,2000.0,212.0,-1.0,-3074.725201533984,233.0,-0.00033426033960406255,19547.07901788385,298.3104064773502,-0.013173424346938276
80,80,2000.0,158.0,-1.0,-2000.0,162.0,-1.0,1829.2927191052622,150.98788858668578,-0.0028292033724726063,-3045.767653252053,226.99999999986136,-0.00029262137022057736,18853.542919252348,298.95933893379294,-0.012267428008188681
81,81,2093.400101170815,147.0362764856618,-0.001926428201621619,-2759.359870423418,228.0,-0.0003684690521628082,20592.224268301376,299.2869239489905,-0.012474030105527969,-3939.2570344897886,313.0,-0.00036068776756149955,2000.0,499.0,-1.0
82,82,2236.312112272105,151.0801802973932,-0.0019192523314030408,-2481.803143153726,232.0,-0.00039006225211953537,20377.933237776855,298.10202953226644,-0.01196689856827115,-6124.135978039977,323.33089014644435,-0.0103142205410526,2000.0,462.0,-1.0
83,83,2178.907744179343,151.51896262222755,-0.0020522638456755664,-2620.2085056743927,232.0,-0.0003189035786572168,20086.674951786103,298.2533775557267,-0.012690599075599138,-4547.814462809403,313.0,-0.0008149065799824986,2000.0,480.0,-1.0
84,84,2183.8381193264167,149.74583099119812,-0.0012961784978991002,-2422.3546813859625,234.0,-0.00034939038765763206,19850.179449410516,298.1521497146357,-0.013017241547084276,-4051.048198822396,312.0,-0.0005621859341277058,2000.0,492.0,-1.0
85,85,2357.925458425958,149.1912143951474,-0.001569769880563968,-2001.876548088486,232.0,-0.0003315300491025699,19971.950394776148,297.40413155809483,-0.012037389810224999,-5284.284251274333,323.0014890263967,-0.009011972507640272,2000.0,469.0,-1.0
86,86,2029.4207403519495,151.7371492640337,-0.0018568348326978305,-2571.4593693951115,230.0,-0.0003678206754057167,20492.381431550013,298.4338098628971,-0.012805778875449947,-4210.695248829504,313.0,-0.0006552707658084918,2000.0,483.0,-1.0
87,87,1996.9428176488914,150.61615704719958,-0.0013867481948306895,-2435.153699744837,231.99999999999994,-0.00037192575984607294,20130.268387699984,299.4665177424624,-0.011652164483417134,-5471.95078564463,324.0141235723118,-0.009623010456636284,2000.0,486.0,-1.0
88,88,2448.4077716819443,149.90266716648546,-0.0018504942135709676,-2215.032309332443,232.0,-0.0003054313619525619,19873.67336156675,297.9166443465426,-0.012337085322501768,-3355.879035275779,313.0000000000011,-0.0004425420744760739,2000.0,439.0,-1.0
89,89,1556.8944688242798,149.9667873662016,-0.0011734339099922983,-2897.0888737798964,231.0,-0.0003967684046082911,19828.46025932575,299.9631714623332,-0.012407936210617664,-6159.85843819763,324.54729987819155,-0.010357460228271538,2000.0,439.0,-1.0
90,90,2030.509587746422,152.1194864346759,-0.001525439504213644,-2252.6473726237127,233.0,-0.00035551686587594034,19474.10302587412,299.84552980501394,-0.012213028078882917,-5773.117527659737,325.79601033492787,-0.010770730510811812,2000.0,477.0,-1.0
91,91,2274.194131407709,148.5762196096575,-0.002061787511333134,-2478.8814360933206,230.0,-0.0003149513767537045,19653.05953630972,299.1036365587787,-0.01312347831609041,-4292.819555730307,314.0,-0.0005854965986717915,2000.0,487.0,-1.0
92,92,2294.3731926440246,152.18388633900804,-0.0014841808812923346,-2057.79726426571,235.5275586900155,-0.00031379342535436825,19796.724748773904,300.0865383548695,-0.011851758613351358,-6189.86631621173,324.2073392236637,-0.012312907344676589,2000.0,512.0,-1.0
93,93,2611.6920584003237,151.1258235072629,-0.001692811092010442,-2000.0,219.0,-1.0,2000.0,221.0,-1.0,-1731.5410352637743,243.0,-0.0002747282206189893,18440.12399586089,297.24526329518994,-0.013702947121109695
94,94,2144.2723834590593,148.96309636315289,-0.001473803194309015,-2551.1179534599687,232.0,-0.0004226786144815896,18711.618151585593,300.7948518764612,-0.012474442134912599,-5822.317580378333,325.651174427892,-0.010124693902257462,3325.426296237163,562.9324578742854,-0.0003370933049951668
95,95,1829.598646343007,146.95006389625433,-0.001751705287657533,-2000.0,205.0,-1.0,2000.0,206.0,-1.0,-2000.0,207.0,-1.0,2000.0,210.0,-1.0
96,96,2016.9224268425828,149.91514425317,-0.002704733426404649,-2000.0,207.0,-1.0,2000.0,208.0,-1.0,-2484.5345678363215,228.99999999999997,-0.00032284782049029845,16138.914660853103,297.46406540332947,-0.014109482733608096
97,97,1825.2063230274243,150.26651913316084,-0.0014523480705985724,-2744.772301778277,231.0,-0.0003250559162811755,17441.552485285363,300.5022344027951,-0.014832185022608965,-6257.0619810055405,325.4687724912991,-0.012878558797648652,2000.0,457.0,-1.0
98,98,1938.8053596780148,148.73799560375346,-0.001582254073052427,-2530.7309155602366,231.99999999999937,-0.0003976516864971626,17742.60987383524,300.00797789544936,-0.013820932630461191,-5865.590161064595,325.3822202519852,-0.010292042366540738,2000.0,471.0,-1.0
99,99,2000.0,153.0,-1.0,-2000.0,159.0,-1.0,2394.5874317176213,149.48611043469035,-0.0027484117442461817,-2483.8922944826754,227.99999999999994,-0.0003112178804234672,15172.868839842877,297.7218963277476,-0.014722393399344691
100,100,1389.8179038151336,147.9864757145747,-0.002973986348784072,-2923.6832196552778,230.0,-0.0002908458702236334,16687.83735606701,300.82382403275585,-0.014582775761449321,-6318.020904848657,325.8094801692059,-0.011406522574040671,2000.0,443.0,-1.0
101,101,1951.9110764848056,145.67687316000635,-0.0015238217776038388,-2587.062586368504,230.0,-0.0003469461939873977,18123.38217684152,299.9735856213038,-0.01350324889840255,-4103.132152470504,314.0,-0.0005325639882628858,2000.0,469.0,-1.0
102,102,2354.965284025232,150.5412594785291,-0.0017097655211560558,-2278.895069143658,232.0,-0.0002861597481078651,16207.145452764848,297.82621270202003,-0.014150208813738765,-5490.843493783672,324.8177717432721,-0.009229052866552089,2000.0,449.0,-1.0
103,103,2000.0,40.0,-1.0,-2000.0,41.0,-1.0,2000.0,47.0,-1.0,-1240.7532566877717,69.0,-0.00036353492545641397,1936.3571920592462,146.3812749802254,-0.0024581406801260372
104,104,1910.1279263831175,148.44582182348864,-0.0016679953427428517,-2557.3434226405598,228.99999999999997,-0.0002831884801324288,18323.715392727205,299.9682267714321,-0.013559188596992077,-6073.9165161716255,324.21986096266363,-0.014706748319395712,2000.0,427.0,-1.0
105,105,1746.638032558943,149.5600934387571,-0.001597717207222847,-2377.5939189510455,230.0,-0.00030138465346961173,18112.11814233503,299.2690370294164,-0.011897214516147324,-5742.660758872543,324.22139025305677,-0.010990395573477231,2000.0,475.0,-1.0
106,106,2186.3682935550205,148.4718617111545,-0.001970444985273736,-2473.77572597478,229.0,-0.00027209642469149626,18226.069089921777,298.6034171737517,-0.012987680472869533,-3554.6740965767845,314.0,-0.00038457857895912706,2000.0,475.0,-1.0
107,107,1891.1843754943325,148.5004103351393,-0.0012167373106407005,-2434.0000463514775,231.0,-0.00036208996046322735,19172.283990998334,299.0611259580454,-0.012207307812348052,-3944.3810645505473,314.0,-0.0006171145829818275,2000.0,486.0,-1.0
108,108,2145.214267416224,148.30137677640775,-0.0020652819559303227,-2272.9709006609205,232.9999999999998,-0.00033626289005402033,19461.34294018876,298.21715502702256,-0.01241940886375129,-5581.0902350476745,323.5966204612308,-0.011316512250235645,2097.971478388182,567.1608917700679,-0.00036749415018154434
109,109,2087.4663703735464,149.64789859462599,-0.0016175883092168556,-2736.0359502601245,236.0,-0.00036590355534576015,19244.287645604232,301.30591407988044,-0.013205224335429196,-3977.9761459766605,316.0000000000056,-0.000465085145192987,2000.0,425.0,-1.0
110,110,1969.758135139224,149.19316560577468,-0.0016179851038397488,-2536.1963774621267,231.0,-0.0002983145009479526,19848.916172209447,299.3574501702443,-0.013072595893485547,-3542.890985537041,314.0,-0.00030114567673172904,2000.0,495.0,-1.0
111,111,2011.9268782058607,150.32181652618613,-0.0020437995612867252,-2278.310423196078,235.0,-0.00033619697112281945,19643.614606903706,297.92692907913056,-0.013446941869069088,-5436.8131708961355,323.84015349473714,-0.009410160350751571,2000.0,433.0,-1.0
112,112,2173.4051129086934,146.82835253389794,-0.002207719742626165,-2523.134646807752,229.0,-0.0004456817570965778,20156.086064533953,298.0507802409366,-0.01374977514244976,-6482.891133999946,322.5659473609192,-0.011296323480828225,2000.0,462.0,-1.0
113,113,2171.2074189976224,143.64747623033833,-0.004214220692685242,-2187.8533315887803,227.99999999999997,-0.0003518615437055694,19985.369431024996,297.3789547816258,-0.012560242617343892,-3673.534215508835,312.0,-0.0006732908539120877,2000.0,489.0,-1.0
114,114,1988.8340497120314,146.31425715786833,-0.005027589755144184,-2250.7580160548673,225.0,-0.0002777635630862877,20128.685463262977,298.38735619521754,-0.013365011179288741,-5165.749378739422,324.10502267894555,-0.009382189706821913,2000.0,429.0,-1.0
115,115,2000.0,156.0,-1.0,-2000.0,157.0,-1.0,1887.8689218734753,145.0101125475611,-0.0039758944309982985,-2442.7783845929785,224.0,-0.00039010024251403245,20158.06871738723,299.0523020533235,-0.01321634701681486
116,116,1970.2277485911375,145.04430631608258,-0.004809179147933185,-2000.0,199.0,-1.0,2000.0,200.0,-1.0,-2184.6372953436944,231.0,-0.00030519450638659786,19872.52390780747,298.590139269984,-0.012389582520326705
117,117,1612.5584864377036,146.09481973488414,-0.0032324617116395596,-2000.0,204.0,-1.0,2000.0,205.0,-1.0,-2284.5052080368628,227.0,-0.0003785005572842982,20158.21640094649,297.5698272660014,-0.012344507410535395
118,118,1903.619952260488,144.8631744702932,-0.0037339066534191044,-2186.855641126989,225.9999999999984,-0.000332224262911274,20485.45472885224,298.65567187148764,-0.013142935910861877,-5985.763429284745,322.64296139539704,-0.012994268442121586,2000.0,440.0,-1.0
119,119,2000.0,158.0,-1.0,-2000.0,161.0,-1.0,1454.0523959910342,145.8871837459744,-0.003386686667558772,-2329.058927470777,231.0,-0.0003656820251824385,19971.44459761915,298.4372644814383,-0.011920425225745643
120,120,1832.2594067526525,145.05887824927115,-0.003572262259049683,-2291.467435024774,229.0,-0.0002834798993447979,19742.85355376808,297.89327137028437,-0.012701160441301823,-5802.0847510739,323.2102574802079,-0.011831692295129119,2000.0,463.0,-1.0
121,121,1728.4109705489684,145.10353210671357,-0.0036257234644696806,-2175.906662726423,228.0,-0.0003212887337851248,20482.580710257793,299.2242907631106,-0.012640793241719394,-5891.671451727287,323.18786637604217,-0.01209371610263179,2000.0,477.0,-1.0
122,122,1624.0520212917063,146.3537344564901,-0.0023370673251943896,-2342.4936501376706,227.0,-0.00039235624422866155,19903.682802693085,297.5230166755414,-0.012771017331701865,-6137.323470409973,322.8691694178056,-0.013407784459212549,2000.0,433.0,-1.0
123,123,2000.0,156.0,-1.0,-2000.0,160.0,-1.0,2435.7743046773235,146.42796491023176,-0.004960645635210487,-2000.0,202.0,-1.0,2000.0,203.0,-1.0
124,124,2000.0,150.0,-1.0,-2000.0,153.0,-1.0,1901.9945626322394,143.0262767840719,-0.0030082772593725314,-2034.1441808171592,227.0,-0.0003225748902731458,19887.90249507356,298.6171117762295,-0.011798967855873302
125,125,2000.0,154.0,-1.0,-2000.0,155.0,-1.0,2130.940849340775,143.40704203504677,-0.004607387768749057,-2134.834242388475,222.99999999999994,-0.00032693303724019114,20023.694599577353,297.76524951626425,-0.012313988021166148
126,126,1671.261870851718,144.88931277544594,-0.003032749587852903,-2309.8967066805008,228.0,-0.00031526106153970053,20183.775593668594,298.65089743802235,-0.01332260929859768,-4070.523828226517,313.0,-0.0006753915581558778,2000.0,465.0,-1.0
127,127,1722.6886003787865,146.6979039751542,-0.0035450161915560555,-2394.958459014592,229.0,-0.00036915459493252047,19865.346904557366,298.3057978161111,-0.012398932561253063,-5830.209274784715,323.3201982380962,-0.011121677574489031,2000.0,476.0,-1.0
128,128,2000.0,157.0,-1.0,-2000.0,159.0,-1.0,1931.3026000771704,147.70543027896665,-0.006046657639494583,-2364.0294260087517,227.0,-0.00033882420833945495,20516.477040770034,299.2500824922123,-0.012725549019035316
129,129,2000.0,160.0,-1.0,-2000.0,170.0,-1.0,1354.5232434326736,149.4198076259505,-0.005355368414711465,-2567.6882226466328,225.99999999999977,-0.00032501029329051176,20576.129469669086,299.4042623688121,-0.01210308849710588
130,130,1755.7674523456935,143.25570018961233,-0.004296341758332452,-2506.216434477771,225.0,-0.000334497445172117,19972.882148617904,298.6341909651595,-0.011863075705065954,-5560.200063863581,324.0260836216181,-0.011273700287819065,2000.0,471.0,-1.0
131,131,1757.7054296689626,144.3783270126856,-0.0040013506810607615,-2336.178403795426,232.0,-0.0002996647316068645,20257.175107992913,301.0693026070322,-0.013337754739439149,-3783.1611765363596,315.0,-0.00036768213892444945,3435.8050158932533,563.1821688766421,-0.00034691890013129436
132,132,1808.489616772548,140.65266813890824,-0.003722183649141271,-2198.5400923534667,226.0,-0.0003434219861890205,20754.98893630477,298.85948541144194,-0.01163415548243684,-6197.280434145688,323.1633519770579,-0.013514371971169996,2000.0,498.0,-1.0
133,133,2206.226159198542,143.11934515123966,-0.004625905211487787,-2233.902173758957,227.0,-0.0003660126206374067,20429.292246772082,298.136213304835,-0.011981628619337,-5617.590146262809,323.7613263160504,-0.010022264192026356,2000.0,477.0,-1.0
134,134,1571.9815809097593,143.46219449738356,-0.0035849475796906503,-2000.0,202.0,-1.0,2000.0,204.0,-1.0,-2575.0323847352633,226.0,-0.0003336555421005538,20651.362067421687,298.53148468378305,-0.012487225149768058
135,135,1704.1333792404998,143.4443479838177,-0.004424670497158472,-2000.0,191.0,-1.0,2000.0,193.0,-1.0,-2276.616229553942,222.0,-0.0003731310483034399,20821.03759699808,298.2051129617946,-0.01189403915129774
136,136,1818.9666532705555,147.27217903870638,-0.004138993777529872,-2078.4917986246983,224.0,-0.0003178851888905323,20675.906359367324,298.594713401492,-0.012318247290393864,-5566.977046038843,324.54270498682484,-0.012321693223072607,2000.0,433.0,-1.0
137,137,1657.7730842244275,144.14236695370428,-0.0035709319799885927,-2320.9070454193725,225.99999999998613,-0.000279164672740161,21138.040774706464,298.87247475864456,-0.011931677481255924,-6058.79200218789,322.76996015294907,-0.012900472762902135,2000.0,438.0,-1.0
138,138,1526.383755645815,147.15085082896377,-0.00517136614448052,-2274.0895057966904,227.9999999999998,-0.0003708257320989173,21353.864592844562,297.9560907169328,-0.012360101018607985,-5163.160888790254,323.67223467823806,-0.011159524813687685,2000.0,436.0,-1.0
139,139,1681.9768131781473,146.5073300434889,-0.0028055883149883843,-2185.640291435969,230.0,-0.0002817995268411579,20112.8742099682,298.2671597886894,-0.013045541389282052,-5752.265008921925,323.3929657393105,-0.010203239756896293,2000.0,437.0,-1.0
140,140,1993.588032168046,146.66849944401582,-0.0038488167572577146,-2294.00392825722,229.0,-0.0003864482841215324,20602.364378576345,298.6953144920952,-0.011761744956999273,-6075.191472773591,322.87933703499755,-0.012977452341044287,2000.0,472.0,-1.0
141,141,2162.9833218011613,145.82382283375023,-0.00354535853942654,-2082.254088512277,229.0,-0.00038966573957933883,20295.45797203078,298.426661469038,-0.01187816194847142,-5716.542105219912,323.9246436961475,-0.012004699833167959,2000.0,452.0,-1.0
142,142,1492.9863896912082,144.0445173674432,-0.0031769189790713213,-2000.0,206.0,-1.0,2000.0,207.0,-1.0,-2369.15963652849,228.0,-0.00035715371118098094,20507.508924925103,298.19473963102274,-0.012735653102362552
143,143,1900.6575844220756,143.87272811564796,-0.002441487121181445,-1944.4654549313861,232.0,-0.0002707446020102469,20790.98731069192,299.0959792556815,-0.012018403852333047,-6665.125797429735,322.3699125766918,-0.01778464757922209,2000.0,481.0,-1.0
144,144,1864.0841393271544,143.42337539333028,-0.004167879956451335,-2085.87705600629,224.0,-0.00028031119637773926,20396.607915452314,297.3691601104944,-0.012461811116556932,-5522.917944617749,323.75687345577614,-0.010187612823323932,2310.9534376317138,563.9361466035581,-0.00020593193777374022
145,145,1607.8976356710161,143.3603388574258,-0.0037822019543518105,-2000.0,207.0,-1.0,2000.0,209.0,-1.0,-2319.911175372466,230.0,-0.0003354213592310273,20608.8313647657,298.4195578745975,-0.01275478751962438
146,146,1787.8805616445989,143.19082146550636,-0.004980560353518745,-2173.7256351340425,230.0,-0.0002890864128127696,20536.907771818638,298.2693709511298,-0.011976741207355751,-5507.625157961001,323.72051422649594,-0.010251748800133213,2000.0,436.0,-1.0
147,147,2000.0,156.0,-1.0,-2000.0,158.0,-1.0,1938.529827027006,146.94678242189661,-0.0043704274011312156,-2000.0,206.0,-1.0,2000.0,208.0,-1.0
148,148,1506.9759707689832,148.107071681192,-0.0027357221966574203,-2020.8878240924541,234.0,-0.0003316315929378811,20611.67651759387,299.184948018614,-0.01167261176479079,-3993.5515262858576,314.0,-0.0008240231260621667,2000.0,494.0,-1.0
149,149,2229.298860167828,144.23273986854423,-0.0046084474410513065,-2000.0,206.0,-1.0,2000.0,208.0,-1.0,-2034.1984973693075,230.99999999999994,-0.000308148100659195,20526.207149016667,297.7169346883557,-0.01265014886082305
150,150,1460.2414956248813,144.98027395211298,-0.0037091867668776002,-2352.415279573661,226.0,-0.00037905609179462004,20557.538022086992,297.9032647953984,-0.012357720329177957,-3865.428135485548,312.0,-0.0005224917968355256,2000.0,475.0,-1.0
151,151,1698.2296617750733,147.2660711373803,-0.0027290774139665528,-2374.5495036365787,229.0,-0.00039379489349806285,20741.071405362,300.6239144214413,-0.012408438252308035,-6259.7644266458465,324.76464632924836,-0.012195926612188518,2000.0,483.0,-1.0
152,152,1842.2523001606253,146.2589648408745,-0.005030360902508228,-2278.6953493617975,225.0,-0.000276285029656125,20686.855419167197,298.332622110996,-0.012625971533494963,-5639.528989380645,324.1198745163294,-0.009544886302973867,2000.0,436.0,-1.0
153,153,1561.4734256248469,145.52707680826924,-0.005635497475727524,-2000.0,193.0,-1.0,2000.0,196.0,-1.0,-2645.122685448241,226.0,-0.0003697726683186392,20875.963126096314,298.2861448432267,-0.012654317257873055
154,154,1940.120199115874,144.7437030147266,-0.0033488979085815372,-2325.8838509024326,229.0,-0.00032939023295470754,20349.090605298934,298.0360888973576,-0.012085889075208833,-5829.542693130549,322.99209389748705,-0.009684886441020021,2000.0,475.0,-1.0
155,155,1767.0046394527762,143.0191558252151,-0.005066874016606363,-2246.295890228077,225.99999999999955,-0.00032764470764312946,20678.54170289646,298.1941098490034,-0.012695534341534895,-5893.851563980083,324.16194815656405,-0.01299869864673423,2000.0,474.0,-1.0
156,156,2000.0,157.0,-1.0,-2000.0,159.0,-1.0,2040.690647008864,145.0654952481105,-0.0037339972177422654,-2238.9630663014404,228.0,-0.00040484174073435517,20832.979519644112,298.44618689751906,-0.01183217823846082
157,157,1793.4120812163003,145.49706779533759,-0.0043669250797565215,-2541.536608974043,225.0,-0.000329540179343302,20266.434080715284,297.9963377271041,-0.011968565861066397,-3839.4447755133197,313.00000000048794,-0.0006171051162767635,2000.0,449.0,-1.0
158,158,2245.1660303002814,146.79766464042643,-0.004027025283957264,-2268.944613765799,233.0,-0.0004077908198759742,21043.126262482205,298.7883954540785,-0.012392209129481574,-5817.594137879469,324.32688848953245,-0.010751795377153012,2000.0,473.0,-1.0
159,159,2052.240009851201,143.81386541231993,-0.0037059726193619247,-2362.5718402255025,228.0,-0.0003999333397351597,20955.10069074613,297.69820252270296,-0.011815501906296119,-5826.058319762694,322.07069429213124,-0.012993684522865066,2000.0,494.0,-1.0
160,160,1576.323684548064,143.63506106528874,-0.0031485588543230347,-2000.0,192.0,-1.0,2000.0,194.0,-1.0,-2131.0673595354065,229.0,-0.00034105404732231987,20223.497009811526,297.7502315434209,-0.011550066647264332
161,161,2000.0,146.0,-1.0,-2000.0,150.0,-1.0,2219.0109608591238,142.57551754562087,-0.004589019156923283,-2434.823024928352,228.0,-0.0003851767222059725,20469.818224513798,297.5311626551395,-0.013272222134712337
162,162,1430.0153285992883,145.1991715363597,-0.0015900922139320088,-1946.2834501082411,232.99999999999474,-0.00030254919943613345,21096.755638709034,298.83110441499315,-0.011734699931167925,-3232.3268246546295,313.0,-0.0004953535741409297,2000.0,464.0,-1.0
163,163,1444.5352239326382,144.40212497663472,-0.002387037924423433,-2000.0,207.0,-1.0,2000.0,208.0,-1.0,-2292.2868474043476,230.0,-0.0003573495087546932,20580.553465505505,297.9356908746686,-0.012328788127911128
164,164,2000.0,156.0,-1.0,-2000.0,157.0,-1.0,1504.8483095323263,145.65535949126289,-0.00390778577690952,-2000.0,202.0,-1.0,2000.0,203.0,-1.0
165,165,1818.9654497671627,143.20994196476235,-0.0023630254762354143,-2157.935090716875,229.0,-0.00027865649378536124,20631.034262337194,297.442642845124,-0.012168116261526613,-6201.303722466577,321.59861592691266,-0.012239644927127454,2000.0,478.0,-1.0
166,166,1744.2703632169773,144.69834416483732,-0.0031279847299932897,-2000.0,195.0,-1.0,2000.0,196.0,-1.0,-2194.5656737909594,223.0,-0.00035584135568105874,20760.270464136203,297.81060821316447,-0.012982020060396495
167,167,2000.0,149.0,-1.0,-2000.0,155.0,-1.0,1882.2101810449549,144.5883852379263,-0.004220128606204398,-2220.1955314171087,228.9999999999998,-0.00027015072494977397,20859.3623889097,297.82238310448366,-0.012676026538743194
168,168,1590.4778904302605,148.00847958054558,-0.0032462468808775067,-2163.274603353778,225.0,-0.0003315162097399933,20431.399929501375,298.8181819992946,-0.012649477062511044,-5612.791159900694,324.1736628498593,-0.011573567024247554,2000.0,444.0,-1.0
169,169,1772.7001196029921,146.6169696706751,-0.004528841788570431,-2000.0,194.0,-1.0,2000.0,196.0,-1.0,-2000.0,199.0,-1.0,2000.0,203.0,-1.0
170,170,1572.8345267318434,148.2432870592931,-0.00580809180881202,-2000.0,196.0,-1.0,2000.0,199.0,-1.0,-2000.0,209.0,-1.0,2000.0,211.0,-1.0
171,171,2202.468991782297,153.24886627942394,-0.002191776474601698,-2801.707633593507,230.0,-0.0004632854478265926,19621.33667482099,299.01144062295793,-0.012927565580689401,-5887.942320430997,324.0067042622817,-0.009111103278320482,2000.0,465.0,-1.0
172,172,2253.782373110923,146.81659584257918,-0.0022410422088149718,-2708.6750404837585,228.0,-0.0003059088445621954,19105.85854738559,298.60813178424416,-0.012480259045932673,-5942.224448573557,324.8455340843168,-0.008970668181263278,2000.0,482.0,-1.0
173,173,2217.4980413225776,150.51930996110772,-0.001966378510870626,-2470.8190574879154,231.0,-0.00024408110280193116,18963.599208800406,301.11171804138615,-0.012311625797470365,-4340.394270942254,316.0,-0.00048543372255116816,2000.0,481.0,-1.0
174,174,2366.96981274847,139.5372074361914,-0.003292757845057564,-2066.3429445244296,227.99999999999997,-0.00032523275721842127,20797.364680887782,297.70819002745924,-0.01148131011467533,-6498.2116666087595,321.29034640297914,-0.01314704742137727,2000.0,509.0,-1.0
175,175,2335.182282079805,143.74949818076837,-0.0044711157326554115,-2422.829627675873,226.0,-0.00033664261514453075,19490.64954955861,297.8687537840082,-0.01231810427617483,-6174.955555645141,323.7787059212365,-0.010425986375466033,2000.0,418.0,-1.0
176,176,1734.0379293167143,144.0414902950644,-0.0032709934662691295,-2322.259802529016,221.0,-0.0002953432482750214,19629.83695274681,299.30653133946186,-0.01278640181974478,-6340.5945712318335,323.7781969307257,-0.011355390841507041,3640.2535345367123,563.6777171566499,-0.0003678214936556177
177,177,1854.2032007936982,148.45687766428912,-0.004208597019509414,-2272.024416183963,228.0,-0.0003902455569561163,20172.611066048266,301.1097167353852,-0.012345545708331573,-5922.661745004141,325.911243742075,-0.012479455131306404,2000.0,474.0,-1.0
178,178,2087.5888980739346,148.0603658728457,-0.00967641733115274,-2316.664534944028,224.0,-0.0003157672808737442,19678.29293476074,297.8254333022638,-0.012699813584897123,-5728.973574485113,323.30598435324436,-0.012533469866337549,2000.0,450.0,-1.0
179,179,1867.350770802818,144.52664277586354,-0.004269486450512888,-2408.625625051954,225.0,-0.00033546379809812354,20611.231720076245,298.9348013000663,-0.012468705681305713,-6400.066219339296,323.58609584247597,-0.0122931495780334,2000.0,465.0,-1.0
180,180,2041.9455807329075,144.47125567793603,-0.004383145561989816,-2363.554830859494,226.0,-0.0003268698148631874,20090.76902426451,297.62854928448155,-0.012331621216253747,-5556.670447421539,323.55737666515324,-0.01128108700819204,2000.0,464.0,-1.0
181,181,1730.1056210672666,145.26032008408166,-0.004089425549711282,-2000.0,208.0,-1.0,2000.0,209.0,-1.0,-2232.4392022935335,231.0,-0.0002849766960473954,20803.396380205108,298.63255393619016,-0.013497438419058915
182,182,1650.554699408339,146.4550351235722,-0.003644184658230715,-2495.6737082076484,231.0,-0.0003675873644326631,20720.528600361085,300.465741862413,-0.011668149564519809,-6124.118466934231,324.2646063805342,-0.012981892200380228,2000.0,477.0,-1.0
183,183,1673.3490015681912,144.5725634833835,-0.004213389184278575,-2317.987641252615,227.0,-0.0003888962240967881,20113.36404818621,298.4997429882602,-0.011461060893105479,-5270.710560954152,323.9758947880297,-0.012211655602290362,2000.0,440.0,-1.0
184,184,1625.6936838805257,144.56237146483556,-0.003658985582291884,-2000.0,200.0,-1.0,2000.0,203.0,-1.0,-2361.172714315473,225.0,-0.00029575928112687437,20460.318686625906,298.5727602771696,-0.012861030676738874
185,185,1815.0296510059864,143.19178498221277,-0.0038778365524240995,-1982.0917176847674,227.0,-0.0003259386820185118,20837.531121954802,299.1748009561707,-0.011768136421507015,-5718.701462727646,323.6203824916504,-0.010211584103104385,2000.0,476.0,-1.0
186,186,1983.938289889448,144.07839176706332,-0.0036389401305617045,-2253.3945721915443,229.0,-0.00046034396266114155,20166.078331286513,297.55643539861796,-0.011782186994434308,-4993.631683312504,323.6337853935321,-0.008203324441477276,2000.0,478.0,-1.0
187,187,1556.8660351008011,144.6664053087133,-0.004216761942342241,-2378.2503689188834,224.0,-0.0003440003363920683,20686.92778405041,298.41734798356185,-0.012585913325279965,-6124.304228318222,322.8077813425748,-0.009328357176384954,2000.0,478.0,-1.0
188,188,1977.1459065615434,145.5086701910892,-0.0025350283264505987,-2329.569831142265,229.0,-0.0003858274347466954,20583.14271639396,297.75043920800186,-0.011830458053922159,-3884.5627569157996,313.0,-0.0005865467251742689,2000.0,483.0,-1.0
189,189,1830.77417100965,145.89644952813842,-0.004541326380969219,-2000.0,197.0,-1.0,2000.0,199.0,-1.0,-2223.533060625095,224.0,-0.0003306207008103758,20824.33689616269,298.39622148093525,-0.013372470267402998
190,190,1945.4640994360382,142.4679334595451,-0.0038235282710807677,-2161.024036743896,219.0,-0.0002849736641627628,20860.438875069136,297.8514078930862,-0.01199249960395748,-5591.010516946845,321.5058835165367,-0.013844227837344148,2000.0,450.0,-1.0
191,191,2002.6538664991522,145.65591675024572,-0.006222264384318711,-2247.752146714674,228.0,-0.0004215059654708826,20550.80618974009,297.63092910464815,-0.012083122012040655,-5333.984500318793,323.71703283108974,-0.009396138067817876,2000.0,476.0,-1.0
192,192,1683.3820606940403,147.09666711081627,-0.004133858778696086,-2000.0,195.0,-1.0,2000.0,196.0,-1.0,-2442.730877640308,225.99999999999983,-0.0003166644123238374,20528.284007123013,298.6727581620919,-0.013077871514149977
193,193,2000.0,155.0,-1.0,-2000.0,156.0,-1.0,1714.0676255379276,144.841154750823,-0.003979147097416759,-2000.0,197.0,-1.0,2000.0,198.0,-1.0
194,194,1797.6444048343362,143.66625200872696,-0.0034347683877557524,-2214.246207482329,226.0,-0.0003522092343108143,20129.977036761073,297.2326347612119,-0.011980970326203906,-5519.418705848044,322.4813164961565,-0.012044395978098792,2000.0,442.0,-1.0
195,195,1964.3362150276305,145.1732924294602,-0.003773608053069804,-2068.6943922525834,226.99999999999972,-0.000252370142012762,20164.9673021866,298.16738658098194,-0.012976253077446903,-5949.476569342577,322.94829462129644,-0.011399958123286015,2000.0,473.0,-1.0
196,196,2477.9756018063317,146.81385184603843,-0.0055792836834539184,-2000.0,200.0,-1.0,2000.0,201.0,-1.0,-2336.0949571345254,228.0,-0.00037806048008195395,20397.40647164245,298.47923833302417,-0.012279950401433044
197,197,2066.9806379771185,144.60144846805662,-0.0034227562245895712,-2183.9875952622447,228.99999997471986,-0.0003241425063335717,19926.224870581824,298.0628028544463,-0.011983773063747897,-5285.569771598089,323.34186612991965,-0.01213505791846698,2000.0,438.0,-1.0
198,198,1816.7956060170804,147.37712993638624,-0.004349172309237525,-2293.131600478767,234.0,-0.00034351246718042415,20367.776032119553,300.4806600496099,-0.01302965929502248,-5891.856531886539,325.9284966118423,-0.00977552646143157,2000.0,443.0,-1.0
199,199,1565.2648217490341,143.89658405943487,-0.0036981040416267374,-2417.8915022905726,227.0,-0.0004302337232182757,20049.639262196866,297.9310486762428,-0.01174826583963009,-5830.564348898419,322.16379524326925,-0.011421860615067805,2000.0,483.0,-1.0
200,200,2035.8160438590598,146.05203330913156,-0.005048319251776626,-2350.0115485248275,226.0,-0.00040351249623834753,19766.88817735472,297.69558354218043,-0.012231835767588798,-5716.4117128801345,323.5896745525175,-0.011689257297087061,2000.0,422.0,-1.0
201,201,1511.1803804659207,144.47558077300835,-0.0042479844667037145,-2439.7319302400815,224.0,-0.0003487490363949177,19836.67064898591,297.9453087556224,-0.012378790977019986,-4322.092810857326,313.0000000000009,-0.0007914583799547724,2000.0,436.0,-1.0
202,202,1877.7751812521803,146.21035102753717,-0.0057777477800728845,-2000.0,205.0,-1.0,2000.0,207.0,-1.0,-2165.1347570720573,229.0,-0.0003914469012222846,19880.974594680818,298.18444843963016,-0.011864004591025245
203,203,1837.4939098832895,147.25399680326106,-0.004825103938417887,-2000.0,205.0,-1.0,2000.0,206.0,-1.0,-2432.258270491636,230.0,-0.0005120290142196954,20338.938801134907,297.56566317730267,-0.01243540423969575
204,204,2000.0,154.0,-1.0,-2000.0,157.0,-1.0,1854.301926464014,144.62085339200053,-0.00541703495190192,-2098.772892796162,221.0,-0.0004105852318897581,20566.08777876905,297.9835392808975,-0.012699029598208955
205,205,1687.7227792792025,143.0862313754709,-0.004063799951708224,-2000.0,200.0,-1.0,2000.0,201.0,-1.0,-2259.9749290102573,227.0,-0.00037318666373576797,20870.2792458203,298.6103631064852,-0.012184766674217768
206,206,1882.4191833233747,146.72584622544016,-0.006011751170099301,-2364.5928838393697,225.0,-0.0003720602744546926,19726.750625139175,297.8193926228634,-0.012167467652022168,-5996.909415796999,323.96146650264575,-0.008377460887340189,2000.0,422.0,-1.0
207,207,1600.0482659932584,146.33341640600398,-0.0040614998925460844,-2311.4423006432035,229.0,-0.0003676734944100396,20208.625318499224,298.9912904160483,-0.012401831176948456,-6228.968600367523,324.2788910781235,-0.010629812654036739,2000.0,484.0,-1.0
208,208,1871.6126995393067,145.05837590402894,-0.005000764854004994,-2446.3731497838803,220.0,-0.0003763462319893126,20172.328120527596,298.3214145986829,-0.012010392894375414,-5837.5248478149115,321.8140305117461,-0.013688192919059575,2000.0,477.0,-1.0
209,209,2000.0,154.0,-1.0,-2000.0,156.0,-1.0,2136.8778773326803,146.07931690307592,-0.004146619587888561,-2018.2719540395412,225.0,-0.00034803328765864797,20375.23623533318,298.2800395512593,-0.012061592832743495
210,210,2000.0,154.0,-1.0,-2000.0,155.0,-1.0,1761.2302135424648,144.78884331393735,-0.0033951522476063627,-2151.961328670707,230.0,-0.00031445225293111296,20968.26055765703,298.5262793523319,-0.012250636218236952
211,211,1897.593958248817,144.23321452844235,-0.003320545345447291,-2113.3954154872135,227.0,-0.0003499386829885134,21036.88797282977,298.8602421036098,-0.012762600832650494,-5447.145595497006,322.8483528064666,-0.01102314448843155,2000.0,493.0,-1.0
212,212,1759.3633832760315,144.71602004824243,-0.004926370502686025,-2000.0,199.0,-1.0,2000.0,201.0,-1.0,-2093.4443045042694,221.9999999999998,-0.0002712725878740526,20521.086994437024,297.5752169575389,-0.012287459230433498
213,213,1553.1779380532032,142.49495367330985,-0.0035642173949285527,-2000.0,193.0,-1.0,2000.0,198.0,-1.0,-2000.0,202.0,-1.0,2000.0,203.0,-1.0
214,214,1598.1774709297622,142.74422283092284,-0.0035498440354832564,-2000.0,198.0,-1.0,2000.0,205.0,-1.0,-2462.1379291410412,229.0,-0.0002472818421165516,20529.0668873442,298.1813624211928,-0.012454429577729938
215,215,1873.3359031060422,148.03980837973768,-0.009744353503784964,-2000.0,195.0,-1.0,2000.0,196.0,-1.0,-2372.3159871455396,220.0,-0.00033696186708731345,20107.3335487507,298.10517803886376,-0.012559834381813658
216,216,1919.142786199201,144.9578003435958,-0.004147503671163829,-2308.190272669349,227.0,-0.0003060553880388748,21112.209888504898,299.14900565683456,-0.012831006558409373,-3828.3055970753835,313.0,-0.0005134887106575365,3579.213934055909,566.1240613699963,-0.0004333695647786032
217,217,1465.4195926339928,144.67014847658666,-0.0033746727116409107,-2000.0,194.0,-1.0,2000.0,195.0,-1.0,-2000.0,202.0,-1.0,2000.0,203.0,-1.0
218,218,1571.2120749718486,143.68105858128698,-0.003952810698879237,-2000.0,198.0,-1.0,2000.0,203.0,-1.0,-2436.545925270793,228.0,-0.0003876673676959038,20482.18193836339,298.00212096549734,-0.01285303572530288
219,219,2000.0,146.0,-1.0,-2000.0,156.0,-1.0,1579.2286040759984,144.2044150632589,-0.004204033815873656,-2488.61361191751,230.0,-0.0003105937275262002,20820.63766663183,299.32114459510325,-0.013020167574273512
220,220,1560.7613083118276,149.11147910677482,-0.0061331221834972395,-2289.1956423202146,225.0,-0.0003167811289129329,20548.23509821073,298.62017081694705,-0.012266234707402497,-5045.377558524639,324.41976847890936,-0.007640599037278737,2000.0,467.0,-1.0
221,221,1970.656829535902,144.41003762010251,-0.0038756915276509114,-2378.838065743727,226.0,-0.00037005017677382325,20289.040633728153,298.11329009109494,-0.01284800058325607,-3651.8715062108986,312.0000000000001,-0.00048108674972232354,2000.0,460.0,-1.0
222,222,2000.0,150.0,-1.0,-2000.0,151.0,-1.0,1598.68710056997,144.13581114163117,-0.0026678557093995046,-2000.0,207.0,-1.0,2000.0,209.0,-1.0
223,223,1466.1002687282642,148.15813323634387,-0.004589014686770211,-2227.8734828069923,223.0,-0.00036209128689078125,20365.56026451493,298.0830707064323,-0.012183734009234776,-5575.033168399511,324.1700485227831,-0.011705764712966686,2000.0,432.0,-1.0
224,224,1833.9553173836055,146.90949308079882,-0.004891870584657213,-2419.3834907139267,223.0,-0.00035156971094390974,20238.190798840216,297.97482406074266,-0.013220924171633328,-4177.135578782447,313.0,-0.0005701341097869553,2000.0,472.0,-1.0
225,225,1295.385240474411,144.23103875761987,-0.004301544573696685,-2414.786118001292,221.0,-0.00025790227058109937,20411.896336652724,298.500691666649,-0.012357818430218421,-6109.390097960597,323.1803822438485,-0.011965476156338122,2000.0,480.0,-1.0
226,226,2000.0,152.0,-1.0,-2000.0,156.0,-1.0,1668.9071074098604,143.882808592607,-0.005743805362385108,-2274.3483706846746,215.0,-0.0002540089152186558,20463.793629054187,297.83755651917164,-0.013180690493736118
227,227,1585.2153823448664,143.02006512052046,-0.003280285684135792,-2476.6554422829795,221.0,-0.00031496800782839944,20584.735667765734,298.104947358592,-0.012515691214633074,-4063.031252138123,312.0,-0.0005873997493476019,2000.0,478.0,-1.0
228,228,1932.3344270849313,143.39896653705324,-0.00453853426107049,-2000.0,193.0,-1.0,2000.0,194.0,-1.0,-2000.0,201.0,-1.0,2000.0,202.0,-1.0
229,229,2026.7937864071162,145.89259608070836,-0.007810148410389053,-2000.0,200.0,-1.0,2000.0,202.0,-1.0,-2119.7547705101756,224.0,-0.00026695717884234676,20545.707805931856,298.2266708769049,-0.012762681558874384
230,230,1639.5716981587063,144.7522641184931,-0.004370824981297694,-2233.6149242298357,222.0,-0.0002959725010937655,20988.397859976933,299.14181760847504,-0.012462492150289084,-3421.1299730068076,313.0,-0.0005373173683212519,2000.0,478.0,-1.0
231,231,1485.535338654151,146.55137245048837,-0.0024419900895206897,-2194.2057010842236,223.0,-0.00028607579849100433,20339.171302797775,297.91828275792994,-0.012450844591452506,-5506.970728089631,323.37532408450096,-0.009983672090219485,2000.0,439.0,-1.0
232,232,1732.2867460725954,143.14362248163644,-0.004534478409190891,-2340.8196842754496,225.99999999991184,-0.00027637927254789337,20513.4885137428,298.6331012590518,-0.013116671889430347,-6407.782649028837,323.55652381219033,-0.012947056609867036,2000.0,451.0,-1.0
233,233,1553.306735743985,144.9578299093678,-0.004982923009721695,-2402.9973646533695,225.0,-0.0003339849739784964,20432.18190989984,297.9136276437616,-0.012246736479743522,-5608.814429665164,322.2914818406989,-0.010294310850567204,2000.0,474.0,-1.0
234,234,1391.1894327682337,144.26052604491304,-0.006256025210277215,-2519.9739412345284,223.99999999999997,-0.0003723774801506654,20749.177859086976,298.4799682486227,-0.012869639564727418,-5488.558301799284,324.575892575715,-0.009488765762059492,2000.0,431.0,-1.0
235,235,2000.0,150.0,-1.0,-2000.0,152.0,-1.0,1514.3003532069392,142.63769951779182,-0.004332740831118676,-2000.0,191.0,-1.0,2000.0,194.0,-1.0
236,236,2015.3129497961338,145.76430950417654,-0.009289403385994037,-2385.4498857153258,223.0,-0.00037433965602046615,20700.960750410784,298.32921155385844,-0.011468640413943418,-5504.119473162036,323.46347741687896,-0.01022694409336992,2000.0,495.0,-1.0
237,237,2000.0,154.0,-1.0,-2000.0,157.0,-1.0,1706.7660779555472,142.300971966078,-0.0069117241081013215,-2000.0,202.0,-1.0,2000.0,203.0,-1.0
238,238,1367.2247492775066,145.18681023491362,-0.0034542735560907727,-2185.6049994535647,229.0,-0.00037809146424064776,21151.701580921505,298.41500158637325,-0.011499651310342047,-5701.495936100646,322.1969083124637,-0.011761725638419502,2000.0,447.0,-1.0
239,239,1813.7094176753124,146.0823295575684,-0.003183871525357584,-2194.097357001967,223.0,-0.0003664456047095237,21347.68462089024,298.29035408242845,-0.01235129087109694,-5768.009219384811,323.53500795505465,-0.012857394443229394,2000.0,450.0,-1.0
240,240,386.69102005303506,156.22623560775637,-6.517402441151565,-2000.0,207.0,-1.0,2000.0,211.0,-1.0,-2410.9453830302073,232.0,-0.0004324854892832443,20788.604717272363,298.2461619359727,-0.012964905414164335
241,241,1513.6157413453316,146.54108474362152,-0.00636597103369408,-2617.9920406486553,230.0,-0.00033248794299678614,20842.37741331635,298.77523029672454,-0.012216307187582763,-5623.449901898937,324.16141697438616,-0.011424129524982155,2000.0,426.0,-1.0
242,242,1618.1367934619675,150.95765456870382,-0.007515323364405364,-2741.486824449932,228.0,-0.0004030723550431174,19707.38853070091,298.62263149287253,-0.012333421620573642,-6009.445325882642,323.5353734002238,-0.011004127018677205,2000.0,442.0,-1.0
243,243,2000.0,63.0,-1.0,-2000.0,65.0,-1.0,2000.0,79.0,-1.0,-1199.1830993229457,96.23666542669864,-0.0005338002294119988,1881.7050161796665,144.33123706251254,-0.006778938929149698
244,244,2021.5457634292943,150.27491999387456,-0.001513766236928802,-2846.4585623153944,228.0,-0.0003012986802186759,19833.025986214438,298.84209814884485,-0.013335437398063149,-4313.90075702822,313.0,-0.00048547485145722375,3708.3751549355943,562.4693240761675,-0.0003931578525696472
245,245,2165.0763874767226,145.0935630661773,-0.0016271146304537344,-2314.294497835069,226.0,-0.000291022480110755,20520.313513194884,299.4832034569872,-0.01281449357182384,-6369.764940587705,323.74889671152374,-0.01216913465214321,2000.0,437.0,-1.0
246,246,2289.3280133605494,145.9915285803349,-0.001631577933866847,-2416.7945075201733,227.0,-0.00036473914344481494,20036.557206419282,297.6731106538417,-0.01186486434292689,-5834.608109064308,323.2339378656927,-0.009486493883660697,2000.0,470.0,-1.0
247,247,2197.507141184557,146.7180126549479,-0.0018735353175413814,-2806.2378532964003,227.0,-0.00032117699172354,20012.233802223847,298.6610076499023,-0.013665886959403708,-4427.550010926675,313.0,-0.0006381317331089195,2000.0,467.0,-1.0
248,248,2049.1260947332867,146.99564913002507,-0.0012684219597910266,-2441.1694906546986,230.0,-0.00031512333451311203,20096.429482120744,298.69668793826446,-0.012579799454295864,-4047.0192476057023,313.00000000000114,-0.0006075226920232014,2000.0,462.0,-1.0
249,249,2172.851563975131,150.60999774560685,-0.002019859245264631,-2370.1583353210885,229.0,-0.00033377718875433773,20695.806785933077,297.92653006401196,-0.013001581870659362,-5549.688798150638,324.2753031202057,-0.009595476150262013,2000.0,427.0,-1.0
250,250,1952.172727907366,150.62987189463763,-0.0009993065563895004,-2520.755917558913,229.0,-0.0003295394487016995,20778.898948763155,299.36262393631233,-0.012374621836044646,-3535.137305903982,313.0,-0.000379784561342397,2000.0,484.0,-1.0
251,251,2301.9876943626055,149.5838522822428,-0.0016418587588597187,-2516.431916456314,230.0,-0.0003655660694942838,19970.239055635542,297.91318665584873,-0.011871923001460623,-3762.367041937141,313.00000000000034,-0.0006322943465403866,2000.0,435.0,-1.0
252,252,2000.0,148.0,-1.0,-2000.0,149.0,-1.0,2215.2538375969716,148.23245517022534,-0.002191488779959577,-2567.520544156557,228.0,-0.00033495443657497565,20269.789754388126,298.73464881343824,-0.013620390152960819
253,253,2201.9653121976226,148.85023836462034,-0.001771287986055597,-2420.996574706176,231.99999999999906,-0.00023389530161337723,20854.27413859932,300.8511366013895,-0.013109917936556617,-3654.504734251269,315.0,-0.000401219633313934,2000.0,488.0,-1.0
254,254,2014.7699744795289,146.89058121457703,-0.0016999309365026288,-2149.470914675587,230.99999999997453,-0.00028660303765412653,20482.985711708447,297.9653337869155,-0.012393359443767057,-5866.431018691721,323.8279405138607,-0.012400210720585735,2000.0,448.0,-1.0
255,255,2123.10165767311,145.57392893609892,-0.0020332986534322907,-2324.740794058083,231.0,-0.000264464396971948,20688.55217654697,298.2821587727827,-0.012865142332980717,-3708.7080504091136,312.0,-0.00033281437909501137,2000.0,466.0,-1.0
256,256,2000.0,149.0,-1.0,-2000.0,151.0,-1.0,1871.8784720095646,145.429411290951,-0.0021084991475179052,-2527.1044758063344,229.0,-0.000384605728197035,20123.287539533838,297.3826740089465,-0.011885067580854749
257,257,2004.4382341925445,145.9125058601016,-0.0019644810772139155,-2185.0810909715756,226.9999999999999,-0.00026879313511581353,21440.5604564406,298.3584446811319,-0.014200923912920122,-5859.23508956556,324.02095914607554,-0.010809461161857837,2000.0,444.0,-1.0
258,258,1696.3635285684202,143.93148312660892,-0.0011951949645379121,-2526.4993977870517,228.0,-0.0002951086980977655,20840.890713363366,297.8594960256454,-0.012402174024016251,-4048.5424107392937,312.0,-0.0005570454067877596,3446.045902235121,565.0902898602249,-0.0003082913299752724
259,259,1961.7206698277575,147.71575305986502,-0.0015776291309607675,-2267.020188072695,231.0,-0.0003729336231575555,20419.14008443774,297.6996210267095,-0.012149724331469453,-3779.2722582427036,313.0,-0.0006716774634183964,2000.0,447.0,-1.0
260,260,1735.2613746785535,148.89391563382665,-0.0014198192911336423,-2581.4124878319158,229.0,-0.00033809625536410304,20584.015185161756,298.3282774698408,-0.012320193405898112,-3850.4543796084513,313.0,-0.0004683576145464226,2000.0,482.0,-1.0
261,261,2079.9201739578316,147.26269023788137,-0.0015498993043886284,-2341.4980419549192,234.0,-0.00027346862243906954,20596.008003507308,299.5482703318443,-0.012188826673539297,-3865.7614984099087,314.0,-0.000620985477316903,2000.0,488.0,-1.0
262,262,2000.0,147.0,-1.0,-2000.0,159.0,-1.0,1776.787912621554,147.57997500969043,-0.0017537138555915731,-2288.418046561694,230.0,-0.0002612445923781043,20481.87944527875,298.1643894304171,-0.012792010310667668
263,263,1632.5384092366805,146.4444022662139,-0.0012016950537893914,-2480.0711475356106,228.0,-0.00032871316296907363,21036.48357166956,298.96124064338755,-0.013269125624676307,-3328.7405751473075,313.0,-0.00025248124678141386,2000.0,498.0,-1.0
264,264,2209.221461909434,147.16077640154722,-0.0012336015795149325,-2070.079634239077,231.0,-0.0003742358718810533,20467.152222954584,297.9157496057849,-0.010658657611623244,-5200.990693553356,323.4205001979848,-0.009696998629289905,2368.530760501036,561.2096783979268,-0.00020710946568125164
265,265,2000.0,145.0,-1.0,-2000.0,147.0,-1.0,1746.465893813475,146.39946577155357,-0.0014071711277840644,-2384.031582962511,230.0,-0.0003125950077368957,21115.64124281306,298.005429244105,-0.013127366447733322
266,266,2000.0,62.0,-1.0,-1037.8045320737772,74.51377290953468,-0.0002666691998816644,1908.9265379621097,146.09221825319048,-0.001392651871152208,-2220.7568732370387,232.0,-0.0003917451959202695,20783.34269873503,300.17638484487117,-0.012063248026598968
267,267,2063.4580083314186,145.6212352835003,-0.0019164392287486973,-2137.8028676424665,225.99999999999994,-0.0002727112507541079,20636.02512999522,297.4720014280337,-0.01258276461363499,-3607.363755195554,312.0065124320424,-0.0005532957955547821,2000.0,416.0,-1.0
268,268,2000.0,83.0,-1.0,-1633.523288924374,76.61356310351641,-0.0007308573145059454,2315.2128000408475,146.8805666438477,-0.002760459470380451,-2571.0085393218537,226.99999999999997,-0.0002973567327836751,21119.983161285865,299.0918088900542,-0.01288389292736441
269,269,2195.7793265795713,146.55260171761054,-0.0015718522827108164,-2126.2790482862006,229.0,-0.00020692581508609037,20512.88419526952,297.75610082891893,-0.0123084817459549,-4173.643594072034,312.0,-0.0007116358411007535,2000.0,470.0,-1.0
270,270,2302.342415750145,149.0767287199895,-0.0021951178975917834,-2328.4428421696207,233.0,-0.0003124177659720548,20707.573786691944,298.0228596080441,-0.013218079393233464,-5636.296945550238,324.09884445762196,-0.00938853796456196,2000.0,427.0,-1.0
271,271,2052.4287301873433,147.08860917098784,-0.002198893820539518,-2683.5330178226777,230.0,-0.0003840394280424095,20239.173793977832,297.3669587563065,-0.012065195955521807,-4416.100128759515,312.0,-0.0006918845468270535,2000.0,486.0,-1.0
272,272,1902.6432290959413,148.98808298909455,-0.0012218435022480331,-2090.2926520277224,233.0,-0.00024360716052772424,20718.143471562304,298.7970906747219,-0.012636250636833482,-6053.099121511313,323.7532037456951,-0.012279175674003617,2000.0,450.0,-1.0
273,273,2000.0,148.0,-1.0,-2000.0,158.0,-1.0,1849.140962472893,148.94952939782027,-0.0021158856855141603,-2395.7683795231233,228.0,-0.00038117794057909943,20840.165312119876,297.94010721537376,-0.012429780758565292
274,274,1788.1410426227278,146.1608848657141,-0.0020611900149917553,-2675.941471469422,232.0,-0.0004203352012487144,21004.657922556744,299.14045432690483,-0.011937765052486334,-5382.279026573063,323.91946470894175,-0.007491198124038685,2000.0,439.0,-1.0
275,275,2076.019350810609,148.28966512121204,-0.002023401423432521,-2503.3198981906758,230.0,-0.0003912836495181829,20199.089949564932,297.40663080260384,-0.011649811982899978,-5358.100909738666,323.59956317749226,-0.00900149477439577,2000.0,420.0,-1.0
276,276,2334.3986756453905,150.1243218554547,-0.0019651527250926313,-2418.438909124951,231.0,-0.00021621956490276784,20708.999712085093,298.561193882295,-0.013211577682416683,-4045.9053581155135,313.05376143547227,-0.0005021139826165769,2000.0,444.0,-1.0
277,277,1892.00177503302,148.03497096792023,-0.0014446544023188862,-2567.9867043155064,230.0,-0.0003510817194975941,20355.42093143018,299.05307852340184,-0.011756706758961183,-3637.4720021699263,314.0,-0.0004205715200369589,2000.0,479.0,-1.0
278,278,2000.0,154.0,-1.0,-2000.0,156.0,-1.0,1984.1561180127521,149.10987150776705,-0.0019469152904934095,-2356.6651925411034,230.0,-0.00028406464874933496,20542.329104660403,298.514509786661,-0.012283373359357357
279,279,2221.6361293145424,145.76411317085902,-0.0016101092987847278,-2655.333492793728,226.0,-0.0003287430746955861,20480.544628306194,298.7563670426566,-0.013574141648159375,-3642.7648352686792,313.0,-0.0003036122692428099,2000.0,478.0,-1.0
280,280,2032.0051313510835,146.81141941094006,-0.001385864654081958,-2000.0,209.0,-1.0,2000.0,211.0,-1.0,-2418.428451068307,233.0,-0.00028239519358946917,20147.730659194967,298.1320591797336,-0.012745268500456227
281,281,2071.2959004711815,150.69344307702193,-0.002011564308093544,-2399.9367214721096,230.0,-0.00040947339675111855,20644.04938547784,297.5701308080165,-0.0129301938218533,-5661.6630959561935,324.0316757780908,-0.010355874472654084,2000.0,449.0,-1.0
282,282,2000.9845987747278,147.1931847938493,-0.0018349727496241542,-2709.128397012325,227.0,-0.0004485784472656589,21285.942356845582,297.700646162829,-0.012982623133823212,-3620.267362283273,312.0,-0.00037517283997424023,2000.0,476.0,-1.0
283,283,1764.6075532016016,151.90134862302278,-0.001913056635659702,-2477.979768517154,233.0,-0.0003377480294319121,20650.519410722016,298.6626535425817,-0.012346860299413736,-5392.02432834825,324.9649004620967,-0.009174213629034032,2000.0,430.0,-1.0
284,284,2000.0,149.0,-1.0,-2000.0,162.0,-1.0,2339.920139532573,149.97629195307942,-0.002359701374245476,-2607.2228899085976,231.0,-0.00034742891866940427,20672.855334999153,299.2685335575199,-0.013396165339912957
285,285,1778.032532639114,145.3217454819567,-0.0018826568320669784,-2805.831733308836,230.0,-0.00042273066626989387,21104.40108160404,299.16390209943177,-0.012394987405869074,-3514.7351830125294,314.0,-0.0005196259236366972,2000.0,496.0,-1.0
286,286,2199.6965100189054,149.42267844309993,-0.0027589539531393606,-2605.3679555853737,230.0,-0.00033309311133064833,20426.504724316903,298.62340915057604,-0.012749588903435544,-5387.661775989237,325.54445185625633,-0.007330834050452525,2000.0,450.0,-1.0
287,287,2218.639818458841,145.34474455808962,-0.0022155718398969727,-2559.2499293107676,225.0,-0.00023859462521147494,20123.695513246435,298.5258725544402,-0.013304159198777638,-3940.7213016585356,313.0,-0.0004140658999642107,3192.8924447049453,564.6098755298901,-0.0003425992172279063
288,288,2172.3677810035515,145.24101268572812,-0.001601233608563707,-2505.6274554104507,231.0,-0.0003068080062011843,20303.23556521035,299.26435629826074,-0.012088214622978237,-3557.734052331019,314.0,-0.0004845088343827335,2000.0,490.0,-1.0
289,289,2236.142996229652,149.33766712051784,-0.002242468587666707,-2189.3701528578895,228.0,-0.00023436557939976232,20107.801260067754,298.20662994171255,-0.01202778883465686,-5587.271151710919,323.86815616221656,-0.010152606624004296,2000.0,466.0,-1.0
290,290,2083.196293829866,147.75926441912472,-0.0016402202317961736,-2879.426760523546,227.0,-0.0003841484062396566,20998.005425906853,299.1730549159936,-0.01288126920611563,-4021.3450037885177,313.00000000067377,-0.0005125797277846756,2000.0,482.0,-1.0
291,291,1895.91444639607,151.0281881251843,-0.001337341246598296,-2591.0117996544045,234.0,-0.00034014023814850456,20697.927069832967,298.9547702609256,-0.012335320565108962,-3825.58516690219,314.0,-0.0005376955879806411,2000.0,490.0,-1.0
292,292,2304.930957147769,151.74114588662337,-0.0019779954709911855,-2481.9536113677723,231.0,-0.00031018261918842015,20692.497627590285,298.08387608560196,-0.012431286398192031,-5358.592285281122,324.2197168652468,-0.007455695283137511,2000.0,459.0,-1.0
293,293,1789.193011643086,147.80271533295195,-0.0015172632702683498,-2642.5984310127137,231.0,-0.00035407071836011445,20419.277036122687,298.87748701683216,-0.011940241516118485,-4267.771882216733,314.0,-0.0007064764513958503,2000.0,480.0,-1.0
294,294,1977.7812878119742,151.14453148638626,-0.0020540931369338574,-2426.4716199780814,232.0,-0.0003360175561344035,21096.087951740225,298.4723297197471,-0.012454448638358612,-3674.556814779896,314.0,-0.0006955285880047166,2000.0,430.0,-1.0
295,295,2064.3574883657775,147.77097129670372,-0.001683851784758587,-2483.2874647142808,224.0,-0.00031053509041020045,20158.3569071082,297.1670635354677,-0.013188152579517678,-4011.831662328599,312.0,-0.0006589327489559525,2000.0,467.0,-1.0
296,296,1760.7039166717934,148.6151034288465,-0.001008482437353993,-2667.612221776405,227.0,-0.0003958415483549478,20648.91135946497,298.6563390761236,-0.012064159682101557,-4048.4148149556536,313.0,-0.0006417861294972352,2000.0,483.0,-1.0
297,297,2151.454443699753,145.43749007170558,-0.0015757784592394409,-2164.291262894504,228.0,-0.0003062704693593085,20480.04327329668,297.77374296383454,-0.012823167001879634,-5689.411086335769,323.43369347272437,-0.012181587089112603,2000.0,471.0,-1.0
298,298,2167.24436040853,147.65540941907474,-0.002061446194909681,-2443.149693598131,228.0,-0.000306498981489377,20433.069368549895,298.76107520779937,-0.01341561010228469,-6429.647893971794,324.2610784751881,-0.011691446141402445,2000.0,465.0,-1.0
299,299,2154.9441992427714,144.21464625240407,-0.0013977188638570177,-2050.447401769307,231.0,-0.00027432370899470977,20684.2638807481,298.3077758566475,-0.012227956648602772,-4557.909749260468,313.0,-0.0011371414533566339,2000.0,483.0,-1.0
300,300,2040.2283482416103,148.32239820163107,-0.0013529153544404905,-2176.9309667526677,229.0,-0.0004858140042640412,20023.615311278056,297.71273966930636,-0.0124382440390476,-5119.202557161166,324.9424722578027,-0.00617252724093357,2000.0,479.0,-1.0
301,301,1783.5865445116822,146.07483871173065,-0.002245942946712441,-2533.557320668634,229.99999999999997,-0.0002963598996917639,21069.88868243638,299.40874708007976,-0.013271328987697254,-6238.895648948159,324.569893001516,-0.009706190224113306,2000.0,486.0,-1.0
302,302,1823.9965546419528,145.41084525044016,-0.0015563961691893616,-2351.0839512583207,229.0,-0.0003025155390329793,19922.29672331239,298.61153607721445,-0.011675996848570161,-5609.0189050546505,322.9534280365273,-0.01178670388206361,2000.0,470.0,-1.0
303,303,2000.0,141.0,-1.0,-2000.0,145.0,-1.0,2243.0389345136787,146.4218421351915,-0.0020836623376277517,-2148.4056227405877,228.99999999999997,-0.0003115234130294176,19937.76078669091,298.08670086802937,-0.011935558981041998
304,304,1764.7855373387633,145.37279001813818,-0.0018277648043662472,-2430.2209483509264,230.99999999999997,-0.0002543782706262256,20926.642714002723,298.7506978697512,-0.013123060249845976,-3883.0231595901873,313.0,-0.000388268677635328,2000.0,468.0,-1.0
305,305,1978.060982581748,144.41910927976704,-0.002015181626522497,-2479.8587013529495,228.0,-0.00039741967210094937,20165.441021736606,297.739631156396,-0.012456322216566978,-3782.6969085427577,312.0,-0.0005435598473420045,2000.0,491.0,-1.0
306,306,1966.5311498239619,147.3062077239772,-0.00180595867468906,-2166.9360216610953,232.0,-0.0002500931785833817,21056.70382058567,300.03769311361407,-0.01430297529574219,-3626.149340196543,315.0,-0.0005134442805134709,2000.0,451.0,-1.0
307,307,1629.1628385354963,145.76650039524057,-0.0011483940310160433,-2530.09299562921,230.0,-0.0003497309135464701,21056.898199322673,298.38658400989897,-0.013097773148365759,-3956.239470594967,313.0,-0.0005716363695072121,2000.0,427.0,-1.0
308,308,1979.311588239051,148.56439308634,-0.0018343173382308995,-2208.831514484951,226.0,-0.0003697807576797774,20396.93432904366,297.90765736758186,-0.012027857385508744,-5409.930189142648,324.12114750002564,-0.009485931195263262,2000.0,436.0,-1.0
309,309,2102.1972073584593,151.99258773393834,-0.0027547236992858056,-2544.4378981587906,230.0,-0.0002849663971342503,20179.8108438139,299.0388618908218,-0.012976311624044685,-3582.144241143725,314.0,-0.0004284194889554302,2000.0,465.0,-1.0
310,310,1687.6623590950392,145.0425399752399,-0.0015379126627379884,-2565.652580983704,229.0,-0.0002958373533714757,20374.867605001804,298.62272120343357,-0.012641055488283084,-5761.950233877192,322.8431410047151,-0.011197032388232707,2000.0,469.0,-1.0
311,311,2086.6502503695633,149.58416867486704,-0.002345480054460992,-2214.7467387800784,230.0,-0.0003869956010734674,20856.137844202178,298.2318126969136,-0.012353150067603524,-5416.877712960771,324.08871633031583,-0.010711869009427782,2000.0,471.0,-1.0
312,312,1902.0815753780644,145.41533328819585,-0.002032933765037588,-2460.4316471904276,227.0,-0.00027889769040637585,20680.51136387415,298.71327118838195,-0.012655750171566282,-3691.6359857329403,313.0,-0.0004858920292318003,2000.0,480.0,-1.0
313,313,1678.1136495063665,144.91108142536171,-0.0013353971155011986,-2000.0,207.0,-1.0,2000.0,211.0,-1.0,-2497.3847289873934,232.0,-0.00035717741565687245,20913.71447609086,299.3033403415069,-0.011921611116815067
314,314,2144.7986009981273,147.87207383103978,-0.0022619647497780873,-2321.635318580947,231.0,-0.0003804682002464619,20754.711693057354,298.3355102768216,-0.012925667969080968,-3877.6789066067217,314.0,-0.0008111238752342726,2000.0,470.0,-1.0
315,315,2022.431153686852,150.3362945485007,-0.0023330763181912753,-2623.6133048593438,228.0,-0.00042139222046151166,20622.453724549883,298.2539426236193,-0.012532471049943376,-5748.110649532767,323.56948395908944,-0.008429701572611822,2000.0,478.0,-1.0
316,316,1790.4735540511815,145.96820773949838,-0.0016281347035149573,-2574.189946899706,230.0,-0.0003010189814304336,20372.427025889043,298.70504895878895,-0.012104987610565249,-3638.5974881354286,314.0,-0.0004257644336188889,2000.0,482.0,-1.0
317,317,1759.2902615999524,146.7193349835638,-0.0023860261015879,-2595.9968316354266,228.0,-0.00034576999837223623,21003.82785130715,297.9528493718494,-0.01264494691768747,-5416.248811421015,323.7619051232247,-0.011024696989237257,2000.0,425.0,-1.0
318,318,1968.1017487206382,149.5080477946198,-0.002660662995427019,-2609.007899495154,226.0,-0.00030336087043437336,20079.11048719762,298.64225709366417,-0.012709652789280178,-3574.4263103606295,313.0,-0.00047738413902008035,2000.0,461.0,-1.0
319,319,2021.9304143153665,141.47982081964057,-0.0018888170628413952,-2488.823486809958,227.0,-0.00022944514520843184,20874.76992124514,298.5676430199889,-0.01330871139185657,-3669.420366274528,313.0,-0.00042017926402777633,2000.0,468.0,-1.0
320,320,1801.3145821246371,148.64354512416492,-0.0013455172227548177,-2214.947890438628,227.9999999999999,-0.0003326810545790138,20361.279135234803,297.8292269454821,-0.011604442725437243,-5641.090576812184,323.3667542208552,-0.012660377983996295,2000.0,441.0,-1.0
321,321,2000.0,147.0,-1.0,-2000.0,148.0,-1.0,2031.5640802325622,146.72193962313793,-0.0026493360043383807,-2444.328134543283,231.0,-0.0003414972811659383,21384.952838802965,298.1111945544557,-0.0134735251248761
322,322,1905.5528745126903,146.16261403212704,-0.0014539909128055257,-2476.041721058072,230.0,-0.00032150539396263794,21161.759314986924,299.55002148251674,-0.013043026146007624,-3760.4291353266854,314.0,-0.0006165087372234085,2000.0,492.0,-1.0
323,323,2158.5025268660097,149.03608132551278,-0.002366228164746543,-2150.319520442057,231.99999999999974,-0.00042471220476993885,20547.880056913506,297.9130220605435,-0.013031469035187333,-3728.046067673676,314.0,-0.000712249185510201,2000.0,473.0,-1.0
324,324,1664.8688537061862,146.74488765483898,-0.001577098996709084,-2707.5681347465093,230.0,-0.00033519470455492664,21064.43783676322,297.72712719151764,-0.012715474336631734,-3750.7628912586806,312.0,-0.00040305892237336375,2000.0,471.0,-1.0
325,325,1944.088342107129,146.07485663008583,-0.0010753948014656733,-2334.3275854445733,229.99999999999994,-0.00030375952385825627,20219.471425279964,299.0250237300486,-0.01221054427831387,-4077.064484405197,314.0,-0.000967876563389808,2000.0,468.0,-1.0
326,326,1957.6811371613362,148.38118236226944,-0.001525553429110833,-2116.8224744041104,229.99999999999943,-0.0002991049143210886,20968.716017541195,298.2995302253577,-0.01253153547926684,-5589.222887666498,324.3480435593998,-0.010409650750618915,2000.0,451.0,-1.0
327,327,1835.6256185141792,147.16965091907093,-0.0015399356869609821,-2700.9206903744107,231.0,-0.0003667172400136662,20633.221379620107,297.5738577943182,-0.012321794438133816,-3747.368323268254,311.00000000000045,-0.0003951400064164868,2000.0,460.0,-1.0
328,328,1997.0920858918614,142.93805448068363,-0.0017302214695515028,-2376.4269398623983,228.0,-0.0003340850728135251,20520.28024211163,298.90691010806523,-0.012099512278017996,-3399.4762495025193,313.0,-0.00031078739760120313,2000.0,484.0,-1.0
329,329,1999.4085457059127,149.95457478249898,-0.0019909365611144223,-2573.6773731540347,229.0,-0.0003653606442222777,20518.007455924668,298.1772419060933,-0.012480021731849183,-5752.632871595996,324.4713357619888,-0.010116237412422631,2000.0,474.0,-1.0
330,330,1754.5319730550161,144.7418892335609,-0.0017260662970747854,-2806.167125928326,231.0,-0.00029117209730998046,21052.574370941315,299.00224854243186,-0.013312738763006635,-3884.7910787627957,313.0,-0.00039357137695594265,2000.0,473.0,-1.0
331,331,1969.7398298856099,146.4374775229021,-0.0016695154934903648,-2325.3652035348887,231.0,-0.0002913374465667174,20569.387671565924,298.9513378401978,-0.012539339538543894,-3428.6597119282665,314.0,-0.0003346025270559196,2000.0,448.0,-1.0
332,332,1746.4540922095432,146.5363394908547,-0.001665660683499556,-2000.0,207.0,-1.0,2000.0,209.0,-1.0,-2180.2026175133524,237.99999999999113,-0.0002516088496403696,21113.804291180655,298.4391008667982,-0.012962460348470125
333,333,2001.2186645703928,143.02900365646533,-0.0016200156108128428,-2000.0,207.0,-1.0,2000.0,208.0,-1.0,-2000.0,210.0,-1.0,2000.0,211.0,-1.0
334,334,1721.7166794333025,147.2340991144049,-0.0012147616222019416,-2343.2755476019674,226.99999999999886,-0.00035373049693593046,20812.4588453274,297.7910697183486,-0.01236391240106496,-5337.729384117375,324.0900490285634,-0.00867028105223505,2000.0,467.0,-1.0
335,335,1844.246941008821,143.97111571051624,-0.0017491609488526454,-2356.228629469317,230.0,-0.0003116081425271165,20860.846718377925,297.8798543998576,-0.013066288477836188,-6293.47726009947,322.77654886064965,-0.010479499517545727,2000.0,438.0,-1.0
336,336,1885.1110539595695,140.23949475135703,-0.00231836434783876,-1902.0986962175893,228.99999999999983,-0.0002932221294348342,21639.93348035794,297.9003404972048,-0.012348592235423261,-3635.260891261042,312.0,-0.0006814481561722817,2000.0,491.0,-1.0
337,337,2000.0,149.0,-1.0,-2000.0,156.0,-1.0,2056.9916085189607,143.084260305459,-0.004054877626447605,-2144.64912116646,226.9999999999998,-0.0003002353941881181,20798.778525843023,297.42930394840914,-0.012453166767563507
338,338,1984.3487078447033,142.74276501923478,-0.0038974478477774455,-2271.7216599938733,220.0,-0.00027130715116264553,21341.700710443987,298.44541295933186,-0.01295174951194718,-3818.9726929515605,313.0,-0.0005459242719184814,2000.0,491.0,-1.0
339,339,2092.6363547574115,142.46531723018663,-0.003637859979866495,-2338.2850361264727,226.0,-0.0004398907519359851,20830.232934353968,298.04123593548,-0.012000217940445576,-5974.128220089027,321.96572825580927,-0.013527172854498348,2000.0,422.0,-1.0
340,340,2242.4305321280826,143.49203108928444,-0.0075298433741522435,-2215.5454283668255,224.0,-0.00030095574765764846,20555.77887350692,297.52208032567887,-0.012617568280205452,-5244.567282133477,323.33922660293007,-0.008383974821165546,2000.0,458.0,-1.0
341,341,2000.0,148.0,-1.0,-2000.0,155.0,-1.0,1617.8034838979706,141.36392813635837,-0.006363859775525374,-2000.0,194.0,-1.0,2000.0,197.0,-1.0
342,342,1605.2116329655132,142.4484950203435,-0.0023647577412443826,-2113.024069551602,225.99999999999994,-0.0003110785050754475,20732.3925187205,297.85382957148795,-0.011373731964356608,-5829.364467499526,321.4249349774848,-0.013624310402582662,2000.0,468.0,-1.0
343,343,2000.0,152.0,-1.0,-2000.0,155.0,-1.0,1605.9242744043702,145.4294689215072,-0.0055457366597514695,-2000.0,198.0,-1.0,2000.0,200.0,-1.0
344,344,2000.0,153.0,-1.0,-2000.0,154.0,-1.0,1950.19940721011,146.53918231105507,-0.00426083306419303,-2000.0,200.0,-1.0,2000.0,202.0,-1.0
345,345,2000.0,159.0,-1.0,-2000.0,160.0,-1.0,2085.9636549503,143.90794550115606,-0.002611736372457077,-1970.4809323347415,231.0,-0.00024444566310089785,20951.194400098146,297.79417037315596,-0.011898591683931804
346,346,2000.0,155.0,-1.0,-2000.0,158.0,-1.0,1701.322497675907,146.61647417934526,-0.004317414736610415,-2000.0,193.0,-1.0,2000.0,202.0,-1.0
347,347,2000.0,48.0,-1.0,-1349.2813654440147,69.0,-0.00039300218508862714,2000.0,147.0,-1.0,-2000.0,150.0,-1.0,1902.1322806153755,146.8478714025235,-0.003585988695690851
348,348,1866.6158916480738,145.7828945304841,-0.005253080694288111,-2000.0,195.0,-1.0,2000.0,198.0,-1.0,-2092.276079766416,232.0,-0.00020411756000314327,20884.061856761073,298.23482432038924,-0.012743400819230097
349,349,1497.367194116021,145.47360506813038,-0.00270691808197947,-2000.0,193.0,-1.0,2000.0,194.0,-1.0,-2000.0,199.0,-1.0,2000.0,201.0,-1.0
350,350,1825.6186227898147,153.31086844483187,-0.0013732680722058697,-2956.41256417475,231.99999999999994,-0.0003769004648992959,20357.68558149531,298.86930100018805,-0.013151274783648952,-4020.1652115892707,314.0,-0.0005136677531130581,2000.0,466.0,-1.0
351,351,1747.1845196478373,148.5624001707684,-0.0020194331741470064,-2934.8143203856266,229.0,-0.0003713473080169492,19695.2359228254,297.9037602977189,-0.012150151205329605,-4017.016202666892,314.0,-0.0006670709301057847,2000.0,481.0,-1.0
352,352,2248.3185899293,150.14483159400135,-0.001929303558043805,-2979.304027841366,231.0,-0.0003899647191576771,20111.10092316835,299.18637013621725,-0.014100960661052113,-3699.088434964389,315.0,-0.0003180176946932782,2000.0,508.0,-1.0
353,353,1501.0580278023197,150.92401147073613,-0.0020564128232539018,-3018.909697888018,229.0,-0.00031931887905628764,19435.767144289242,298.42653987697247,-0.01295885231639261,-3974.4519149793227,314.0,-0.00046245465110324494,2000.0,463.0,-1.0
354,354,1896.8988219306257,144.0628566851646,-0.0016323945231841695,-2292.3541946425134,233.0,-0.0003477582662783938,20348.35915016025,299.5785636074234,-0.012674565615522231,-4540.195362262023,314.0,-0.0006453333250448765,3808.3618543125954,571.5781850476911,-0.0004108640478887079
355,355,2532.296472899714,148.04087622237614,-0.0016712725882961476,-2360.361774728589,230.0,-0.0003810739684755972,20466.940957792278,297.73703244715705,-0.011589374349080177,-4127.503911899296,313.0,-0.0008426269188353217,2000.0,462.0,-1.0
356,356,1952.4809739706757,146.39840075376773,-0.0012561348542738885,-2363.200872136326,228.0,-0.0003273231218959993,19747.82804132587,298.41029565056925,-0.012699065345823657,-3810.3990867394864,313.0,-0.0005087053829486122,2000.0,468.0,-1.0
357,357,1951.4992807173564,152.67185612531057,-0.0015557772431045865,-2247.0875622446624,233.0,-0.0003747704494901587,19763.312238645613,298.0094550597519,-0.011408895177435987,-5904.527469901738,323.21322798632974,-0.011582638851052289,2000.0,443.0,-1.0
358,358,2157.697460527034,151.7200479035232,-0.002101588057810579,-2633.3902061168683,231.0,-0.0004361107767628493,20058.51006396229,297.8740143950921,-0.011969754135950653,-5048.3499240299425,324.6860845558164,-0.006450804767671814,2000.0,436.0,-1.0
359,359,1775.3413353701726,150.09600088174284,-0.001662955030582154,-2861.7745060374696,229.0,-0.0003373181159409538,20208.312109156646,298.22978591145466,-0.012602817709831349,-3864.9387402914354,313.0,-0.00040741058717890183,2000.0,482.0,-1.0
360,360,1767.0602811510157,149.75960082633,-0.0013237161109197516,-2723.26250159525,224.0,-0.00029840257244527604,19757.886234447786,298.07462133118855,-0.011448002704760879,-5371.517303275932,323.8999545326629,-0.00792168995329613,2000.0,453.0,-1.0
361,361,2171.6827423025256,147.01781333278606,-0.0018248053875499195,-2702.5649865460505,222.0,-0.00033352737562931267,20760.024867195174,297.6082207475891,-0.013312559230664938,-3848.649599654715,313.0,-0.0005089821397868174,2000.0,466.0,-1.0
362,362,2019.5204172633214,146.42260405573123,-0.0014319280224737922,-2500.003941320948,226.0,-0.00024823525534020473,20210.506620982214,299.16678227704085,-0.012929736571086653,-3033.8596024054496,313.0,-0.00015541803440078219,2000.0,493.0,-1.0
363,363,2109.931984909349,143.3687189123852,-0.0031833945200156113,-2000.0,199.0,-1.0,2000.0,201.0,-1.0,-2000.1532819217905,224.0,-0.00021615139861314497,21645.703404607677,298.16192342041006,-0.01276287221841543
364,364,1870.1715694077802,142.89388332156878,-0.003392943895758757,-2157.53981854678,229.0,-0.0002701923853636546,21026.609552802583,298.0750745288433,-0.012973302908753828,-6407.7506840091555,323.15493153635333,-0.010631492923439087,2000.0,487.0,-1.0
365,365,2000.0,155.0,-1.0,-2000.0,156.0,-1.0,2154.426438823588,143.20164657844353,-0.0035399392938175785,-2041.5004623753982,231.0,-0.0002995122721182915,20909.432536054075,298.87006480793826,-0.011595165795324
366,366,1751.8443810102804,142.50713205640102,-0.003933215456426144,-2000.0,199.0,-1.0,2000.0,203.0,-1.0,-2195.9873284033115,224.0,-0.00024794708251673595,20588.3827125642,297.9242677698057,-0.012452100151590135
367,367,1661.0180219336983,142.84956773072133,-0.004138320869047156,-2000.0,194.0,-1.0,2000.0,196.0,-1.0,-2499.483877659436,223.0,-0.00024093351058872026,20316.567185468364,298.3301467531379,-0.012077463463601619
368,368,1851.6465389918349,141.8819109380355,-0.0028646608638353568,-2311.51755837075,229.0,-0.00028309139939350114,20075.144726636077,298.41384243781556,-0.012522765602392797,-5792.2528622195305,324.0645097739698,-0.009520292355297028,2000.0,464.0,-1.0
369,369,1852.6638116292584,142.80931180388953,-0.006474495899511481,-2455.540516793964,223.0,-0.00042038987286895064,20488.804604361576,297.94215714615416,-0.012807498417731104,-5465.155996807186,323.49108605295544,-0.009894168319434706,2000.0,399.0,-1.0
370,370,1861.981162592735,144.3559233248249,-0.005752706499120494,-2438.045700341609,223.0,-0.00034109319199030836,21075.37535336777,299.1536634433913,-0.012437352990267148,-6112.838034672389,323.0378963588368,-0.012193182319628546,2000.0,492.0,-1.0
371,371,2000.0,150.0,-1.0,-2000.0,151.0,-1.0,1885.1743330165828,143.16151509275556,-0.0045200532966880504,-2000.0,198.0,-1.0,2000.0,209.0,-1.0
372,372,2071.550603333198,143.06756757408814,-0.005745390838570163,-2000.0,205.0,-1.0,2000.0,208.0,-1.0,-2188.190658913904,229.99999999999955,-0.0003576823696543577,21532.79660000767,298.3065759927605,-0.013146810279942103
373,373,1977.1492191590698,144.68637016276074,-0.004259633450745179,-2000.5814826712883,224.0,-0.0003446173967323756,20823.220133124763,299.1355233427283,-0.011790475145601968,-3643.4569141311836,314.0,-0.0007843610467192329,2000.0,485.0,-1.0
374,374,2000.0,153.0,-1.0,-2000.0,157.0,-1.0,2023.581876191807,143.81611239820967,-0.004603543880177479,-2000.0,190.0,-1.0,2000.0,196.0,-1.0
375,375,2017.8829197244188,143.21501423030867,-0.004698668710271169,-2000.0,194.0,-1.0,2000.0,196.0,-1.0,-2356.319033965071,223.0,-0.000281767246652618,20497.9184328644,297.8482232369517,-0.012680855028585292
376,376,1857.4426721460388,144.0552395845915,-0.0034517009332476053,-2182.0961128012914,232.0,-0.0003640602542870798,20505.210048024906,299.73147156502336,-0.011818439697688718,-5403.215032129189,324.9273433836723,-0.01004091829160702,2000.0,409.0,-1.0
377,377,1929.2933414610677,143.40931963870858,-0.004467935316253408,-2000.0,196.0,-1.0,2000.0,200.0,-1.0,-2058.4910464142586,228.0,-0.00022452608283054162,19876.27629980157,297.47844818315264,-0.011852703562640503
378,378,1955.223119481713,143.63795807793707,-0.009685355772813759,-2395.301636339274,222.99999999999977,-0.0003422757607274507,20280.44955217122,298.6208694573893,-0.011962203593942173,-5397.122317523185,323.7553222568294,-0.009015297377523959,2000.0,454.0,-1.0
379,379,1805.668296301924,144.1939954934411,-0.0036758161853380363,-2241.9982606361154,228.0,-0.0003497540393234589,20843.495539641917,299.1737628069114,-0.012603823700553043,-5498.518045409148,324.1156894779432,-0.009827541564274149,2000.0,460.0,-1.0
380,380,2000.0,153.0,-1.0,-2000.0,166.0,-1.0,1670.5277632397724,146.51585390983584,-0.006727261914621524,-2247.203504844677,223.0,-0.0003672054240536359,20681.61813362332,297.86651037683396,-0.012724992823378918
381,381,1595.7042769574766,144.8011776546197,-0.0029901395095750932,-2000.0,193.0,-1.0,2000.0,197.0,-1.0,-2298.2649588838553,228.0,-0.0002965334444107713,20612.478640992438,298.7673093242171,-0.01164658605606784
382,382,2000.0,90.0,-1.0,-1425.1208445169864,86.17474749956725,-0.0012404760278312593,1664.7276480114306,144.83386425009735,-0.003950556594582212,-2213.8101740793477,219.0,-0.00042673240216610606,20837.073656799268,297.8074491826176,-0.013135539477160379
383,383,1720.4508658682696,146.06024943030422,-0.0027276061758734044,-2000.0,192.0,-1.0,2000.0,194.0,-1.0,-2131.522678281072,224.0,-0.0002996725903109143,21112.52367382286,298.46285532509376,-0.013018135890410723
384,384,1681.0503712677623,145.5000331234563,-0.0031049553316555073,-2130.9832456277886,228.0,-0.0003346428304016056,21160.824681748567,298.86263488983616,-0.011604808520657246,-3893.0501275882148,314.0000000000005,-0.0007983984518222899,2000.0,502.0,-1.0
385,385,2000.0,146.0,-1.0,-2000.0,150.0,-1.0,1843.506078790909,145.02354845621147,-0.004083360223782838,-2042.1654270155977,229.0,-0.0004417951741284568,20516.159840326854,298.2961084702217,-0.011627535783249581
386,386,1677.7922420993732,147.90080737090227,-0.003271907983789811,-2000.0,205.0,-1.0,2000.0,208.0,-1.0,-2341.307780778028,233.0,-0.00033322429193968214,21249.023398950165,298.5241064848376,-0.012589875204957988
387,387,2000.0,144.0,-1.0,-2000.0,148.0,-1.0,2128.8099142807177,145.26281598939568,-0.0023623559901076313,-2201.6959581055003,228.9508819200113,-0.000335746676637819,20756.482273236103,297.7393922874715,-0.012410945196136707
388,388,2289.3664635497403,145.19841295536338,-0.006611039610025337,-2164.061978054056,228.0,-0.0003448800756414958,20931.17710792292,297.58698680522986,-0.012626683744429091,-5937.957975404706,323.21842433725203,-0.010783878579102176,2000.0,417.0,-1.0
389,389,1486.5438031122326,145.34956848518158,-0.004736952850504629,-2298.679997251605,221.0,-0.0003292469212055698,21412.449644194312,298.6607550105209,-0.012815360339550403,-6042.388234328092,322.98401206509914,-0.012353448896707536,2000.0,441.0,-1.0
390,390,2000.0,146.0,-1.0,-2000.0,149.0,-1.0,2291.341076342843,144.43195359103746,-0.0043748695992570025,-2288.063321618304,231.0,-0.0002597897487604675,20524.179029283794,298.00108286711037,-0.012386871299993583
391,391,1840.1088511579671,143.80160584184802,-0.004938336038130686,-1979.7329398894651,224.0,-0.00016615293835243704,20850.41137988906,298.2047399423138,-0.011712189610923955,-3388.8115269150653,313.0000000002803,-0.000554019019279535,2000.0,442.0,-1.0
392,392,1602.678769345278,146.82147191691115,-0.004297653966329327,-2000.0,202.0,-1.0,2000.0,207.0,-1.0,-2601.1658478880963,231.0,-0.00029158225380164764,21187.275087685553,299.0111005505803,-0.01303312202523869
393,393,1952.704474934381,145.13293100661963,-0.0030592503385166686,-2424.2044408782817,225.0,-0.00046890235032785575,19908.751590660177,297.87687383394245,-0.011695193559761265,-5989.727800177765,322.29494499963533,-0.012458383030422314,2000.0,420.0,-1.0
394,394,2033.4579464554083,144.72002052811723,-0.004746302456076295,-2371.186875059606,229.0,-0.0003654842631055341,20559.425768805475,298.71204188276215,-0.012674048354519447,-5226.743074017308,324.3359216131344,-0.009793080697998268,2000.0,443.0,-1.0
395,395,1261.3770001794585,144.54241596423773,-0.003147706325491771,-2000.0,194.0,-1.0,2000.0,202.0,-1.0,-2566.6714763593573,225.0,-0.0003580879491078736,20851.285849683005,298.67665751751747,-0.01254200715012073
396,396,1720.7622300357584,144.47377819609972,-0.004326585943890744,-2000.0,198.0,-1.0,2000.0,204.0,-1.0,-2396.8175876538594,227.0,-0.00027411542331161397,20662.894660200604,297.4463251569249,-0.012356739065392561
397,397,1924.9546794464986,143.99301956678582,-0.005234708582730726,-2247.9935480858844,219.0,-0.0003018799832745905,20782.985508831793,298.27587591191605,-0.013264366853342173,-5704.913961724605,324.13754173214915,-0.012647115136360774,2000.0,448.0,-1.0
398,398,1875.6231321996943,144.29766384557695,-0.0027361228642091037,-2206.543495110839,229.99999999999994,-0.00027172347068092997,20857.176093204576,298.1061265906392,-0.011903972356630124,-6263.277621210194,321.7954675754715,-0.014742933278594402,2000.0,473.0,-1.0
399,399,1849.3374415661935,147.19453984029414,-0.0025637542183468104,-1861.2818461844813,232.0,-0.0004134620216915554,20946.163427666408,298.25971559198973,-0.01168135603675105,-5598.661797482137,324.24312484609203,-0.01279488424467091,2000.0,391.0,-1.0
400,400,2000.0,147.0,-1.0,-2000.0,150.0,-1.0,1850.315405853683,143.62884305984707,-0.002480630385777182,-2111.8390130658695,230.0,-0.00032246013682450073,20231.53228416908,297.4889147873361,-0.012279349386535333
401,401,1827.444560806515,147.1127612394397,-0.0021814268901061812,-2292.5424632250197,233.0,-0.0003846987851462985,20381.981207539593,297.9809985107487,-0.01129731156837307,-5587.1906965966,322.6604423784303,-0.009414492995168755,2000.0,495.0,-1.0
402,402,1858.8943468652908,145.3236489983294,-0.00397379952861499,-2036.7445524691436,224.0,-0.00029030025778823657,20731.89303272604,298.3540605523386,-0.012837093190378433,-5491.29055033461,324.3180666851149,-0.010235471224027246,2000.0,447.0,-1.0
403,403,1692.1276342144508,145.50022747156368,-0.004198861612421113,-2335.7430670899034,222.0,-0.0003164048937492724,20924.23345568727,297.78800551273486,-0.011936646704380438,-3679.8672325488897,312.0,-0.0006296041776840814,2000.0,460.0,-1.0
404,404,1602.996919031737,147.9522163809883,-0.0022863044769955384,-2377.4891299172155,233.0,-0.00033682277813727534,20590.88831252247,298.56199244263007,-0.01219742660958056,-5867.929233429064,324.2872394481569,-0.010668651988066382,2000.0,485.0,-1.0
405,405,2091.1458958133785,146.79185935719153,-0.007269956454870759,-2000.0,201.0,-1.0,2000.0,203.0,-1.0,-2320.190999520959,228.99999999999991,-0.0003613190524424632,20365.456574345717,297.9565499823764,-0.012028785659370114
406,406,1717.8105479754472,144.8925447210632,-0.0041893466727423775,-2319.0855509291005,224.0,-0.00038812892782731645,20977.129273438517,297.3303267852822,-0.01108931967180945,-5690.981198536161,321.2353346646625,-0.012336775296851463,2000.0,478.0,-1.0
407,407,1977.7017817417322,145.12730645814392,-0.004576757744072947,-2167.9205553966885,228.0,-0.0003421282983573526,20494.601605761087,298.17704743128144,-0.011669452000479362,-3656.2480189953985,314.0,-0.0008372764502938223,2000.0,472.0,-1.0
408,408,1711.0466930707519,144.75814986534354,-0.0037076883464236795,-2000.0,205.0,-1.0,2000.0,208.0,-1.0,-2589.08333419085,229.0,-0.0003102346353954261,20607.461294007062,297.94624872685415,-0.012527097016848204
409,409,1724.4242392415056,142.82883089807171,-0.0028288648267425953,-2190.069085177595,222.0,-0.00033466670208416415,20322.57623668023,297.77861497554244,-0.011981373480662595,-5926.597634343858,321.92555841059993,-0.011742063270974714,2000.0,478.0,-1.0
410,410,1867.2759291939108,145.05583073936884,-0.006951748609765688,-2000.0,199.0,-1.0,2000.0,203.0,-1.0,-2087.8673387465897,226.0,-0.0003164384441172555,21213.99533910553,297.8360673259354,-0.013307302403035326
411,411,1435.622418362284,148.81513180809984,-0.00241207238789761,-2000.0,201.0,-1.0,2000.0,209.0,-1.0,-2540.6923925144065,230.0,-0.00038471332745623093,21852.511468320285,299.0756726222158,-0.012919697352695157
412,412,1463.51452127482,144.4454047345416,-0.004337903771274671,-2000.0,202.0,-1.0,2000.0,209.0,-1.0,-2481.510059478378,231.0,-0.000266786091477909,21068.03440586152,298.3148602598625,-0.012231431277957023
413,413,2000.0,147.0,-1.0,-2000.0,153.0,-1.0,1879.7203885338934,141.19711299408226,-0.0036009950282631267,-2000.0,197.0,-1.0,2000.0,201.0,-1.0
414,414,1725.6461444185043,143.64594628645224,-0.004107473573754742,-2533.9987001801774,227.0,-0.0003996771171393293,20808.16847047591,297.8696755359145,-0.011103489999799675,-6068.653923240656,321.68377093058297,-0.01480140737802064,2000.0,440.0,-1.0
415,415,1842.5153533261253,145.6818873392872,-0.003695617813900844,-2000.0,203.0,-1.0,2000.0,206.0,-1.0,-2000.0,207.0,-1.0,2000.0,209.0,-1.0
416,416,1994.994479110735,143.56509735748534,-0.004439197132614488,-2027.3306977400168,223.0,-0.00021553183848642142,21245.12960134318,297.9909353706169,-0.012314570011879498,-3810.310893958541,313.0,-0.000717527690209386,2000.0,446.0,-1.0
417,417,1708.0494104949119,143.9675992088162,-0.003087668494780495,-2000.0,195.0,-1.0,2000.0,196.0,-1.0,-2093.609682654878,232.0,-0.00027925126279623,21348.044296568383,299.1239061155233,-0.011853716458568609
418,418,2261.938490194281,144.4438802944179,-0.009780043465812184,-2132.6645481428122,227.0,-0.00028003532731645745,20955.93788084783,297.4333372717745,-0.0119488851950427,-3523.504606586483,313.0,-0.0007015171935063143,2000.0,435.0,-1.0
419,419,2000.0,147.0,-1.0,-2000.0,148.0,-1.0,1447.8197717047408,145.3164811803221,-0.0029241696581605715,-2000.0,199.0,-1.0,2000.0,205.0,-1.0
420,420,1856.9399815163617,143.80389198161558,-0.0032889502564700155,-2000.0,207.0,-1.0,2000.0,209.0,-1.0,-2144.695644616674,231.99999999999937,-0.00028589739165366736,21345.505877633568,299.06535939922077,-0.012634519025644943
421,421,1863.9764015289152,143.1778007788889,-0.0036616700038638156,-2000.0,202.0,-1.0,2000.0,204.0,-1.0,-2113.9490500002753,225.0,-0.00028397530934209936,20726.102436712106,297.5046444964309,-0.011967238856045248
422,422,2000.0,152.0,-1.0,-2000.0,154.0,-1.0,1439.9694757955747,142.91968354740115,-0.004222543150265873,-2385.3656309291237,224.0,-0.00026649452969803314,21484.250946489796,298.22306002556735,-0.012420457167182361
423,423,1711.6564741613545,145.1860218117437,-0.003136959073102662,-2234.8872814832107,229.99999999999991,-0.00033236089793583476,21190.03159804142,298.87581511420467,-0.012757623885272724,-6308.123011037047,323.5004747927955,-0.013450350958700175,2000.0,490.0,-1.0
424,424,1799.1105825702505,144.70494786115563,-0.008523976892397036,-2299.2224015635397,226.0,-0.00038468260809074677,20629.650672177697,298.13830471405765,-0.012086863661781284,-4644.5746688397585,324.247824862123,-0.008217139865438237,2000.0,457.0,-1.0
425,425,1568.7575307867385,146.49820796307006,-0.0027854448379812952,-2340.770471680059,228.99999999992534,-0.0003236191328430707,20893.029760009027,299.4419410099608,-0.011999477976220235,-6054.69016730344,324.02392918334317,-0.012083272536935655,2000.0,462.0,-1.0
426,426,2000.0,152.0,-1.0,-2000.0,156.0,-1.0,1679.843342787584,144.81833709939337,-0.005350553533978101,-2309.1714408786083,224.0,-0.00024955677198663614,21216.011773827497,298.3299114095,-0.01203541056779573
427,427,1964.5985964786053,145.4395329198203,-0.0052045736787960616,-2267.176863476393,221.0,-0.00039042545251885124,21122.64300466065,298.4710296531979,-0.012811539492310358,-5352.539380797738,324.33518409673843,-0.008842756771309959,2000.0,476.0,-1.0
428,428,2039.1375843946516,142.7287448965012,-0.0014553253672909732,-2553.7128919514976,228.0,-0.00027932267663075824,20806.93894946178,298.74529535675947,-0.012478455574106656,-2925.294774674792,313.0,-0.00022990354939285648,2000.0,453.0,-1.0
429,429,2346.79649446818,150.66552413840424,-0.0017923431629170157,-2409.5840362875056,227.0,-0.00031741424042645866,20631.506283067247,298.08063063542437,-0.011695475684799036,-4848.156369183532,324.6967743323954,-0.006527072762756267,2000.0,417.0,-1.0
430,430,2078.6201504317237,145.57068643206566,-0.001579914982881946,-2384.215477873257,222.0,-0.00025070328477064404,21274.65507518721,298.33151212908376,-0.013686134081203385,-3430.5031252859926,313.0,-0.0002742223618205955,2000.0,469.0,-1.0
431,431,2338.883068836301,146.244826916558,-0.0013683507255929054,-2452.9828061642443,230.0,-0.0003364728655495657,20560.88806647822,298.22444056421523,-0.012130673376693058,-3586.2503922229553,313.0,-0.0004324358142189706,2000.0,482.0,-1.0
432,432,2369.4037442435842,151.1053987620754,-0.0018613503204206816,-2517.972437535474,229.0,-0.0004643415454225753,21021.638515950897,298.02199883280576,-0.012513482732652214,-3630.974425517238,314.0,-0.0005007662090078806,2000.0,460.0,-1.0
433,433,2000.0,145.0,-1.0,-2000.0,147.0,-1.0,2000.0,148.0,-1.0,-2000.0,156.0,-1.0,2091.466676175928,146.89177505249717,-0.0018273098931726414
434,434,2068.477251614521,151.0516039377075,-0.0014859951213739258,-2492.6261408792247,235.99999999999997,-0.0002809277437387122,20948.92150822496,300.01910133732986,-0.012862980988520914,-3118.2553487770133,315.0,-0.00019437678517202935,2000.0,491.0,-1.0
435,435,2141.083882445602,149.37087620674157,-0.0021928539165363527,-2891.5171207876942,228.0,-0.0004050733629676307,20547.798620987196,297.56401206357026,-0.012579899353002393,-5024.290851239214,323.90386236723094,-0.007096065518437594,2000.0,443.0,-1.0
436,436,2000.0,149.0,-1.0,-2000.0,151.0,-1.0,1913.1076741159234,146.94337925377985,-0.0017618258976293908,-2824.3313531360604,229.0,-0.0002997830199821393,21269.096769949243,298.9655833241094,-0.012900011620827934
437,437,2163.1805573866172,146.73671395578197,-0.0015864870249644488,-2502.8207707790834,227.99999999999997,-0.00034807485785116855,20791.58097070054,298.25849743960555,-0.011666935462561642,-3368.0791920883003,313.0,-0.0003162738623415571,2000.0,463.0,-1.0
438,438,1784.1701639245223,146.9104517614934,-0.0021043726611858467,-2597.2114241675313,228.0,-0.0003376789626414575,20907.692995870002,297.94753177723976,-0.012336567030267743,-5133.531813569317,324.4962208832142,-0.00757564144215218,2000.0,437.0,-1.0
439,439,1973.4934599785258,150.17947147792387,-0.0014424965906607652,-2914.1942346060287,226.0,-0.0003248738794634753,21237.29937538207,298.6830192209988,-0.012447646335553522,-3513.150184463292,313.0,-0.0002935447466923611,2000.0,485.0,-1.0
440,440,2207.0119457313913,148.77633049246919,-0.0016593909393597538,-2505.323279739982,229.9999999999128,-0.00032764986055941616,20612.70555444754,298.391299844963,-0.01197556160088284,-3652.4908179529966,313.00000000000074,-0.0005178684775090382,2000.0,453.0,-1.0
441,441,2183.195922922832,147.94071097566575,-0.0019068306105704542,-2348.165845023708,229.0,-0.0002759724443398703,20552.890158453105,297.5078948453734,-0.012626119931855799,-6186.2067909142825,322.77904087433615,-0.013475657820208384,2000.0,428.0,-1.0
442,442,2296.784760313471,148.06068355082056,-0.0015212382266481302,-2429.517735847577,231.0,-0.0002911401842118488,20846.402760654524,299.1566147169562,-0.012013086289473725,-4281.41944254452,314.0,-0.0006386980685934385,2000.0,482.0,-1.0
443,443,2033.7886387984815,147.97954675092308,-0.0019236261396741684,-2567.3554653971546,230.0,-0.0003712203448375919,20924.410644150095,298.5643994505153,-0.012312968039615627,-3759.6081339611296,314.0,-0.0006727739625480555,2000.0,470.0,-1.0
444,444,2233.3440948600037,147.20788574195558,-0.0024719680448474055,-2681.4517395659686,226.0,-0.00028633563239283463,20377.56438542281,298.12088061779696,-0.012915658118551207,-5978.78005331537,323.8911704037012,-0.010470423795404618,2000.0,443.0,-1.0
445,445,2063.3728701636664,147.2396433112449,-0.0013718674706350528,-2540.056950805387,224.0,-0.0003088621487553314,21020.15534377003,297.9463053400656,-0.011656380826666543,-4018.000791190863,312.0,-0.0006380135455347529,2000.0,495.0,-1.0
446,446,2437.6898591459644,147.6297765089908,-0.0015019403482041719,-2249.5225501155237,229.99999999999986,-0.00033456940451203975,20814.88261215622,298.37582397761645,-0.012408816142708978,-5625.490333453985,323.8073351096469,-0.01072333209563611,2000.0,453.0,-1.0
447,447,2490.421594653341,148.36234112980213,-0.0019129520004551746,-2332.7336908721195,228.0,-0.00024894203238042906,20470.91145251511,298.4537709797879,-0.011836748535918805,-3297.3762435794533,313.0,-0.00031382139944432353,2000.0,458.0,-1.0
448,448,1889.513583481243,151.13944287543313,-0.0013793034392543028,-2655.817106944879,227.9999999999674,-0.0003553853429860242,20522.80292901034,298.9721957230935,-0.01213173587188823,-3555.315774362134,313.0,-0.0003411027979819859,2000.0,490.0,-1.0
449,449,2000.0,37.0,-1.0,-1045.9645345785734,56.05803058225246,-0.0003498092842170837,2157.9771917769745,147.34621155758146,-0.0014606358414084005,-2092.5040827327907,227.0,-0.0003370105963825816,20406.614659802184,298.21434301451774,-0.012051516802188132
450,450,2124.1691732810123,146.00829331866723,-0.0017572388865003238,-2052.120904087984,229.99999999999918,-0.00022988404142076663,20292.073439852546,297.75849324129814,-0.012333336825209535,-6072.483824725071,322.75973637878616,-0.0106923092269762,2000.0,476.0,-1.0
451,451,2000.0,147.0,-1.0,-2000.0,148.0,-1.0,2263.7666709499276,151.40976459056088,-0.001967307996920932,-2601.4814925809546,231.0,-0.00035280444637501455,20559.79578014637,298.8993717336188,-0.012111637445288266
452,452,2000.0,148.0,-1.0,-2000.0,160.0,-1.0,2679.4987557833215,150.84478874352368,-0.001958911801808453,-2060.399135495063,231.0,-0.000377686172117499,20692.627111369726,297.632912507069,-0.012178193714158365
453,453,2400.984855967311,150.23109213784136,-0.0016013246764077027,-2190.0031904573543,229.2932692350148,-0.0003020778837427282,20226.38112698349,297.877218824174,-0.011651037161077134,-4925.505463064015,323.6610521812366,-0.01061900893124197,2000.0,415.0,-1.0
454,454,2284.8345594232105,149.48181504037976,-0.0019218301126431056,-2126.828117810363,232.0,-0.0001867013016790247,21084.851455372995,299.2421057232326,-0.012438351056674443,-5658.900094898881,323.76780073194993,-0.01586508792093802,2000.0,410.0,-1.0
455,455,2000.0,89.0,-1.0,-728.5793597694212,84.40713977322409,-0.002083082825485654,2680.483114122454,146.15903324845206,-0.0016980201834831687,-2040.4646140208552,237.0,-0.00040029350837819395,21251.837558892465,297.9638149228698,-0.012595869813472518
456,456,2000.0,150.0,-1.0,-2000.0,160.0,-1.0,2000.0,161.0,-1.0,-2000.0,164.0,-1.0,1688.5410060869422,149.3297311860142,-0.0024727742224239756
457,457,2000.0,129.0,-1.0,-2000.0,132.0,-1.0,2242.999261848399,150.50158957747098,-0.001301578352870031,-2687.436850415243,235.0,-0.0002615079508537353,21835.460552069635,299.825877355115,-0.012917559074698977
458,458,2000.0,155.0,-1.0,-2000.0,162.0,-1.0,2024.3442449709755,153.5370099898828,-0.0022175517912388126,-2987.492675770939,227.0,-0.0004157175498753353,20722.230079869896,298.4859505360256,-0.013570976250112247
459,459,2000.0,155.0,-1.0,-2000.0,156.0,-1.0,2000.0,158.0,-1.0,-2000.0,159.0,-1.0,1400.8764922120176,154.97840177763072,-0.0010749817266198967
460,460,1978.325480633844,147.50186777404107,-0.001539339768650683,-2098.756275269832,230.0,-0.00032619833364340705,20266.460518081032,297.9591262215158,-0.010600631912370838,-6273.015729730601,322.6560361616297,-0.011123913426733094,2000.0,438.0,-1.0
461,461,2000.0,153.0,-1.0,-2000.0,156.0,-1.0,2078.7429343737354,147.69884088959807,-0.0018077330914432416,-2551.8592055111503,227.0,-0.0003477778649547012,20501.39031514703,297.95305226103915,-0.011410674365281388
462,462,1575.6061258925445,155.0626582428796,-0.0015800136375224104,-2955.9712084904636,230.0,-0.000470529471479094,20580.20505112361,298.70547710179176,-0.012788950690717947,-6319.187014181479,324.1590371401339,-0.009591116748826997,2000.0,456.0,-1.0
463,463,1828.6358302111346,151.35559187710186,-0.002237616403181109,-3072.502863081282,226.0,-0.00030138814655230565,19989.5245351971,299.32964557376613,-0.014158001299152267,-3964.7052314763737,314.0,-0.00033325003215495627,2000.0,450.0,-1.0
464,464,1643.752335884435,146.4414726868895,-0.002218719438882119,-3079.272767946918,224.0,-0.00024715927224009613,19408.026157948396,297.4579476787598,-0.013408090733698072,-3827.48350912411,312.0,-0.00024605136137404983,2000.0,475.0,-1.0
465,465,1773.7270168185335,147.41144911973382,-0.002758934178500512,-2585.430655714997,223.0,-0.0002189079227880552,19803.059213621855,298.33968131323513,-0.01261760157717235,-3512.430435821925,313.00000002074387,-0.0004668448534453838,2000.0,449.0,-1.0
466,466,1791.141245276161,147.2337750906874,-0.00166657856018094,-2840.4001925881653,228.0,-0.0002851452482265718,20655.621706309197,299.20233257510256,-0.01281090477753482,-6709.631334355995,323.9770588799151,-0.012311844009681522,2000.0,466.0,-1.0
467,467,2048.4822853698543,148.36806661488663,-0.0012135924593681543,-2403.0869805913776,230.0,-0.0004049179634396226,20321.075892913657,298.40353153524126,-0.011752389875264299,-3745.618290328036,312.0,-0.0006268996198529323,2000.0,436.0,-1.0
468,468,2509.1558764451233,151.88989307507666,-0.0019666613486551193,-2363.609013561933,233.26321209084523,-0.00033513460632318513,20167.101287901947,298.1958947637787,-0.012994489158356414,-5617.319774322264,324.1554098759208,-0.010066663890034142,2000.0,428.0,-1.0
469,469,2016.0301382201749,152.40421779645024,-0.0010843692357617987,-2589.892683241427,226.0,-0.0002866810950318842,20521.069185243385,298.5794618846403,-0.012445874862508964,-5704.282770903101,323.64045562527684,-0.007559562525241206,2000.0,452.0,-1.0
470,470,2128.088043308718,147.63803868479,-0.002035466597714514,-2502.79246718891,235.0,-0.00036621349335587595,21019.20218555851,298.81381260625403,-0.012468654238174776,-5832.451207442514,324.0266283728047,-0.010771444542499124,2000.0,469.0,-1.0
471,471,2300.5167780129755,148.28907811296602,-0.0024640892710204093,-2603.3588219098006,226.0,-0.0002915121040586668,20090.57228523326,298.2573240024957,-0.013302467450894292,-3628.330500905966,313.0000000000019,-0.00047400289272787676,2000.0,433.0,-1.0
472,472,2000.0,35.0,-1.0,-1263.164243953254,58.999999999988326,-0.00014403007412982008,2000.0,137.0,-1.0,-2000.0,140.0,-1.0,1756.5372511198668,146.2803664517129,-0.0010398553234807952
473,473,2000.0,48.0,-1.0,-1402.7564646137573,66.6552226700424,-0.00044913928401032566,2254.649637980827,146.01394418447137,-0.0020575166224348364,-2257.5939561885625,220.0,-0.00024004262227016868,20219.482934378095,297.2456685415986,-0.012561171539468318
474,474,2000.0,71.0,-1.0,-1048.7039990761841,86.50201876285814,-0.00014076599957252772,2280.4847362460655,148.42999143765047,-0.0014669956172553111,-2210.10459374144,232.0,-0.0002487572871757469,20440.910212894873,299.3996017760798,-0.013092225598533238
475,475,2000.0,47.0,-1.0,-1135.264298964076,67.0604824876225,-0.00022806122926080608,2150.9326512799666,147.33838448885555,-0.001460249232600037,-2214.3170113534834,228.99999999999994,-0.0003089469363299157,20688.6039413834,298.09200979910264,-0.012463877126416877
476,476,2135.558777908111,148.6102512275183,-0.002004585124515354,-2215.0408771531434,226.9999999999896,-0.0002287187912553076,20584.80821772732,298.13929843321046,-0.012657303926204089,-5245.486574408159,323.8238587135483,-0.008308894118687038,2000.0,422.0,-1.0
477,477,2246.9044905876203,144.56920623109454,-0.0016867483619544526,-2435.1566617931344,229.0,-0.0002488528693828817,20267.76975501026,298.8888687134717,-0.012641773500488236,-3919.936161370833,314.0,-0.001028433855959364,2000.0,420.0,-1.0
478,478,2349.32878077783,148.04233187282912,-0.0024893280913231234,-2468.341926132363,227.0,-0.00027089123041427614,20598.989813529362,297.87189917414264,-0.013003686084812336,-2000.0,348.0,-1.0,2000.0,371.0,-1.0
479,479,2000.0,50.0,-1.0,-1667.9386389708022,73.0,-0.00040883710121906314,1714.0244420879994,150.3063716040913,-0.0013890386494303877,-2553.969210244743,219.99999999999997,-0.00021863043012837382,20712.400773783094,297.7996056380997,-0.014150222562615857
480,480,2000.0,73.0,-1.0,-1564.5953986533716,87.2612532508031,-0.0009486664524075858,2156.208015379159,146.77432726235716,-0.0018103113181370974,-3023.9985360105024,225.0,-0.0002932310648264688,20432.96816347559,298.58524117130275,-0.0134445149365139
481,481,1645.2846677843806,148.45964624841378,-0.000850455742466828,-2855.6285610366967,223.0,-0.00022933796591024619,20370.53642632135,299.1143344945737,-0.012785468732071545,-6278.226807705379,324.1617147585868,-0.009988078284319041,2000.0,468.0,-1.0
482,482,1716.4598805338078,146.55274214770893,-0.0019510661726420205,-2584.531750733408,222.0,-0.00027664202912081325,20490.54791617363,298.1516147035909,-0.012152231497360203,-6278.23196671287,324.0911288524561,-0.011090171457166478,2000.0,424.0,-1.0
483,483,2268.8393254790435,142.75376476537684,-0.002333479978196044,-2426.120533047939,224.0,-0.00020880842850484193,20534.54130501555,298.28366915413517,-0.012714162595136271,-4124.718121799808,314.0,-0.0006089284701675188,2000.0,444.0,-1.0
484,484,2000.0,61.0,-1.0,-943.3266295257753,84.99999999999991,-0.00030375066180311723,2000.0,141.0,-1.0,-2000.0,145.0,-1.0,2022.2238029683979,148.04241673864368,-0.0013257973839650048
485,485,2000.0,103.0,-1.0,-1016.571780502319,95.70539200088301,-0.002109044256144794,1967.5227942380457,146.03760010175233,-0.003389759919988254,-2230.1626735812592,230.0,-0.0003527187231932613,20581.62881660976,297.9989849813238,-0.011413990162255328
486,486,1866.2545040099749,147.36090402362262,-0.0019261249482690917,-2511.6508631801216,230.0,-0.00030238903869301713,21473.087956769676,298.29396678506066,-0.012477100960244639,-6494.261291955461,323.4927878480775,-0.011941422708244526,2000.0,423.0,-1.0
487,487,2148.881042898535,145.90568253496366,-0.0017519716209999105,-2303.6875845423447,234.0,-0.0003210011974689448,21281.809776400503,300.6525142081353,-0.012054886791410008,-3559.2815576759626,316.0,-0.0005498800773928616,2000.0,449.0,-1.0
488,488,2312.292188988481,147.54313189796116,-0.002021525321620513,-2644.241813620375,226.0,-0.0003123815493257852,20332.384098194503,298.38172692123527,-0.012736155159872484,-6234.649740000124,324.2788874483911,-0.009160489399668622,2000.0,456.0,-1.0
489,489,2000.0,82.0,-1.0,-1244.5061681718446,81.71918394938301,-0.00038143031764547577,2000.0,142.0,-1.0,-2000.0,149.0,-1.0,1944.4581420480024,147.93143575113479,-0.0012244495195865596
490,490,1975.7246826466467,146.05971061680177,-0.0017946253520903274,-2325.5115440274435,229.0,-0.0002935175809940128,21205.957325176263,297.7833946111631,-0.011710688461789992,-5821.614543364107,322.68217475678114,-0.01444179255530872,2000.0,428.0,-1.0
491,491,2324.5447082723736,143.72420630412114,-0.0023273338002331957,-2419.9884214096537,227.0,-0.0003416033287842205,21373.128304952876,297.9410712627883,-0.013487907549043183,-5743.627023625492,323.5851367978223,-0.010440616957709073,2000.0,442.0,-1.0
492,492,2000.0,38.0,-1.0,-1042.4239409867846,37.8202886646862,-0.0007719233113472871,2000.0,96.0,-1.0,-913.8008550477086,95.40142375354925,-0.0019247342062470511,1577.8080379633834,153.50997249105018,-0.000353480250805529
493,493,1772.0862783386074,148.37614868690335,-0.0014780173385860107,-2454.0685523426555,230.0,-0.0004922623266608628,20924.125133675403,297.56755942511154,-0.011875711657029824,-5217.183891228998,323.6676996122536,-0.008526555396646226,2000.0,438.0,-1.0
494,494,2106.0796448340157,144.5613335378456,-0.001629949881462115,-2136.851819655132,230.99999999999966,-0.0002074088241708566,21504.179764075605,298.36701812978924,-0.013905966241643858,-3404.741736711086,312.0,-0.0003224968433108531,2000.0,480.0,-1.0
495,495,2000.0,106.0,-1.0,-935.7445467454519,95.9818539107126,-0.0024627517297728728,2258.147074558187,146.99646883865714,-0.001932190407942425,-2000.0,212.0,-1.0,2000.0,213.0,-1.0
496,496,2000.0,35.0,-1.0,-1013.755501621971,47.9258382873171,-0.00011571891357165475,2032.7021544140287,146.97361344871894,-0.0018811426562067768,-2347.6008393613224,228.0,-0.0003773479436287023,20708.604429084487,297.76620010659104,-0.013195960444761868
497,497,2174.9322132769703,149.09457151364722,-0.0017025280893111143,-2530.9868432356093,230.0,-0.0001991212816944334,21008.295596938002,298.60408612917996,-0.01309077369395938,-6352.8462163794,324.3258100179121,-0.01164600569107705,2000.0,468.0,-1.0
498,498,2187.64908843283,144.92407942574178,-0.001914476953383112,-2394.987331301743,229.0,-0.0002614572071317624,20636.53463369227,298.63951546837063,-0.012048163496288221,-3881.709065669081,313.0,-0.00041137098497655424,2000.0,476.0,-1.0
499,499,2000.0,42.0,-1.0,-670.0368242554002,47.01364837507099,-0.08029137668178143,2000.0,85.0,-1.0,-1776.0985326228629,85.62744615473025,-0.029827508486706972,2000.0,125.0,-1.0
500,500,2000.0,145.0,-1.0,-2000.0,150.0,-1.0,1056.532060982174,145.73700326830303,-0.0008827705762704454,-2146.1904731391774,230.0,-0.0003781985499240925,20779.84816013864,297.93700789329904,-0.01168831318293485
501,501,1707.7552632987565,141.25727851744844,-0.0034425556568570105,-2242.8958404642804,228.0,-0.0004398507809531491,21181.51665268086,298.2672448935754,-0.011801013687674415,-5390.249179349882,322.616130080024,-0.009081153921147682,2000.0,433.0,-1.0
502,502,1841.9676459238972,145.90763874923653,-0.0030378041183602663,-2000.0,203.0,-1.0,2000.0,207.0,-1.0,-1899.8443149443647,229.0,-0.00028390568496981274,21208.43580068736,298.2906929808811,-0.012023515124588631
503,503,1465.697742225208,144.1576554919285,-0.003453058744894515,-2000.0,203.0,-1.0,2000.0,204.0,-1.0,-2385.4864452760175,228.0,-0.00042326110863021536,21126.43448943291,297.312296317957,-0.01361841369774596
504,504,1850.579031671044,149.24463546756738,-0.0019019442316702243,-2000.0,203.0,-1.0,2000.0,206.0,-1.0,-2631.5972615464757,231.0,-0.00025499659429909004,22068.503191095333,298.3442122116456,-0.013079086749827058
505,505,2035.6263308064722,143.2819310441571,-0.0016994920996047313,-2595.5905691518246,230.0,-0.00020412194863474558,21125.793510091116,298.91487483288813,-0.013133143189437656,-3534.785750036731,313.0,-0.00025761192854944934,2000.0,470.0,-1.0
506,506,2000.0,38.0,-1.0,-709.229417302721,62.99999999907831,-0.00019855323840221496,2000.0,80.0,-1.0,-1075.0260729188822,74.96276615582465,-0.0012032687577032623,1832.5595560178785,141.1022056952773,-0.002798869340585754
507,507,1713.9459673670262,142.5195184751037,-0.0033423693269817468,-2000.0,196.0,-1.0,2000.0,198.0,-1.0,-2186.3001452743715,230.99999999999997,-0.0002883661291751815,21148.56878760606,298.01945236499955,-0.011924958786550487
508,508,1718.3298488928408,142.72110068565223,-0.0025744702427035284,-2000.0,202.0,-1.0,2000.0,208.0,-1.0,-2237.6049606851757,228.99999999999986,-0.00037724185210109964,21080.61315381762,298.0506820326203,-0.01112180785053405
509,509,2136.8376696449213,143.2686542304019,-0.011285477149619192,-2000.0,191.0,-1.0,2000.0,192.0,-1.0,-2000.0,203.0,-1.0,2000.0,205.0,-1.0
